Frame,Sub Frame,RF,BF,MG,LG,AT
1,0,0.0484467,0.0251007,-0.0813675,-0.167694,0.0497818
1,1,0.043602,0.0154495,-0.0482941,-0.183678,0.0719452
1,2,0.0338745,0.0424576,0.0656128,-0.0946808,0.0695038
1,3,0.0603485,0.0989914,0.0499725,-0.132141,0.0686646
1,4,0.0655746,0.073204,0.0743103,-0.0753784,0.0751495
2,0,0.0513458,0.0579071,0.0405884,-0.0244141,0.0748062
2,1,0.0436783,0.0158691,0.0736618,0.0690079,0.0860977
2,2,0.0319672,-0.0263214,0.059166,0.136414,0.0868225
2,3,0.00144958,-0.0801849,0.328827,0.130692,0.0925827
2,4,-0.0199127,-0.0848007,0.395088,0.0743866,0.0906372
3,0,-0.0282669,-0.0406647,0.406685,0.0117493,0.0836182
3,1,-0.048027,-0.0169373,0.0714111,-0.0531769,0.0757217
3,2,-0.0297165,0.0858307,-0.311089,-0.0853729,0.0746155
3,3,-0.0139236,0.0662231,-0.0731659,-0.0624084,0.0829697
3,4,-0.00232697,0.00865936,0.0770187,-0.0209045,0.0616837
4,0,0.00530243,0.0175095,0.0744247,0.0596619,0.0442123
4,1,0.00858307,-0.00846863,0.197182,0.0457001,0.0462341
4,2,0.00541687,0.0431824,0.0934219,0.0276184,0.0535965
4,3,0.0156403,0.00804901,-0.203819,0.111771,0.0615692
4,4,0.0228119,-0.0152588,-0.239258,0.22892,0.0740051
5,0,0.0196457,-0.0241852,-0.107422,0.128288,0.0908279
5,1,0.0111771,-0.00984192,0.0286102,0.0678253,0.111771
5,2,0.0106049,-0.00759125,0.136909,0.0682449,0.0885773
5,3,0.00465393,-0.0146103,0.101891,0.102768,0.0627136
5,4,-0.00324249,-0.0358963,0.0896072,0.148468,0.0626373
6,0,-0.000648499,-0.046196,0.184975,0.168495,0.0564194
6,1,0.00133514,-0.0278091,0.268784,0.212822,0.0524902
6,2,-0.00869751,-0.0130463,0.130348,0.14946,0.0484467
6,3,0.000572205,0.00785828,0.0582504,0.105171,0.0359726
6,4,0.00778198,0.000419617,0.121765,0.107574,0.0562668
7,0,0.0167847,0.0145721,0.0882721,0.135727,0.0830841
7,1,0.00331879,0.0165558,0.0206757,0.106735,0.0862885
7,2,-0.00926971,0.014267,0.0578308,0.0641632,0.0771332
7,3,-0.01297,0.00984192,0.052948,0.0382614,0.0764847
7,4,-0.03582,0.0217438,0.0919724,0.069313,0.0808716
8,0,-0.0512314,0.000839233,0.0959015,0.0606155,0.0801086
8,1,-0.0733185,-0.0291061,0.05867,0.0688553,0.0844193
8,2,-0.0793457,-0.0156021,0.0527573,0.0559998,0.086441
8,3,-0.0362396,-0.00358582,0.0473022,0.040741,0.0842285
8,4,-0.0227356,-0.0154114,0.0632858,0.0296783,0.0938416
9,0,-0.0308609,-0.0213623,0.0860596,-0.0101089,0.105247
9,1,-0.035553,-0.00232697,0.129776,-0.0696945,0.103683
9,2,0.000228882,-0.0162888,0.107346,-0.129051,0.0714111
9,3,0.0395966,-0.0037384,0.0569153,-0.102005,0.0369644
9,4,0.047226,0.0378418,0.0228882,-0.0211334,0.0150299
10,0,0.0528717,0.0637054,-0.010376,0.212402,0.0164032
10,1,0.062294,0.0605011,-0.00461578,0.312881,0.0312042
10,2,0.0590897,-0.0131226,-0.0340652,0.340919,0.0711441
10,3,0.0479889,0.00469208,-0.0429153,0.311279,0.0915909
10,4,0.0380325,0.00694275,-0.119095,0.184021,0.105972
11,0,0.0370026,0.0482559,-0.0621796,0.0898361,0.0988007
11,1,0.0308228,0.0812149,-0.0268173,-0.0317001,0.0870132
11,2,0.0266266,-0.0268173,0.14122,-0.0211716,0.0857544
11,3,0.0197601,-0.0391388,0.210609,0.0877762,0.0717163
11,4,0.00976563,-0.0373077,0.119934,0.190315,0.076828
12,0,0.00499725,-0.0280762,-0.171204,0.151329,0.0794601
12,1,0.001297,-0.00804901,-0.140266,0.10704,0.0790024
12,2,-0.00766754,-0.0123215,0.0452423,0.0379181,0.0663757
12,3,-0.0143814,-0.032959,0.130386,-0.0119019,0.0661087
12,4,-0.0123596,-0.0296021,0.0859833,-0.0408554,0.076561
13,0,-0.0149918,-0.0206757,0.087738,-0.0872803,0.079689
13,1,-0.0149155,-0.0172043,0.13401,-0.115471,0.0670624
13,2,-0.0187302,-0.00507355,0.121841,-0.113754,0.0598145
13,3,-0.0176239,-0.00221252,0.101357,-0.088768,0.0566101
13,4,-0.0246048,0.00175476,0.0798416,-0.0399399,0.0603485
14,0,-0.0242615,0.00453949,0.172997,0.0383759,0.064888
14,1,-0.0222397,7.63E-05,0.169373,0.111389,0.0764465
14,2,-0.0208664,-0.0145721,0.131226,0.13073,0.0792694
14,3,-0.0196457,-0.0322723,0.122871,0.118904,0.0747681
14,4,-0.0190353,-0.00694275,0.0920105,0.0759888,0.0714874
15,0,-0.0115204,0.0178528,0.101242,0.0572586,0.0741196
15,1,-0.00732422,0.000190735,0.111504,0.0696945,0.0619888
15,2,-0.000305176,0.0376129,0.109787,0.0781631,0.0482559
15,3,-0.00221252,0.0294113,0.0707245,0.120201,0.0593567
15,4,-0.00434875,0.00629425,0.0148773,0.156288,0.0718307
16,0,-0.00526428,-0.0112152,-0.0550461,0.176468,0.0661469
16,1,-0.00133514,-0.00507355,-0.0576782,0.183296,0.0615692
16,2,0.00160217,-0.000343323,0.00736237,0.149078,0.0719452
16,3,0.000953674,0.0012207,0.09552,0.139656,0.0741577
16,4,-0.000267029,0.0172806,0.0818253,0.112343,0.0619125
17,0,0.00507355,0.0348663,0.0779724,0.0739288,0.0644302
17,1,0.00640869,0.0150299,0.0703049,0.0575256,0.0696945
17,2,0.00816345,0.0370789,0.0686264,0.0567245,0.0766373
17,3,0.0122452,0.066452,0.0665283,0.0608063,0.0826263
17,4,0.00923157,-0.00740051,0.049057,0.0596619,0.0833893
18,0,0.00831604,-0.0310135,-0.0690079,0.06073,0.0854111
18,1,0.00900269,-0.024147,-0.0381088,0.0574112,0.0885773
18,2,0.00930786,-0.00453949,0.00854492,0.0572586,0.0840759
18,3,0.00812531,-0.00659943,0.0230789,0.053215,0.0789642
18,4,0.00782013,-0.01297,0.0398636,0.0538254,0.0776291
19,0,0.00617981,0.0327301,0.0547028,0.0597382,0.0798035
19,1,0.00846863,0.0475693,0.0632858,0.0635147,0.0792313
19,2,0.0100708,-0.00499725,0.072937,0.0678253,0.0776672
19,3,0.00514984,-0.00972748,0.0760651,0.0710297,0.0806427
19,4,0.00225067,-0.0231934,0.0794601,0.0712204,0.0817108
20,0,0.00408173,-0.0314713,0.0806046,0.0711823,0.0796509
20,1,0.000572205,-0.0294495,0.0725555,0.0698471,0.0780106
20,2,0.00133514,-0.0272751,0.070343,0.0705719,0.0737762
20,3,3.81E-05,-0.0170898,0.072403,0.0671768,0.0677109
20,4,-0.000801086,0.02388,0.0694275,0.0665665,0.0654602
21,0,0.0031662,0.00419617,0.0679779,0.0695038,0.0658035
21,1,0.00343323,-0.0114822,0.0683975,0.0718307,0.0660706
21,2,0.00156403,-0.00865936,0.067215,0.0719452,0.0654221
21,3,0.000267029,-0.0069046,0.0637436,0.0737,0.0623322
21,4,-0.000343323,-0.00469208,0.0635529,0.0711441,0.0605011
22,0,0.000610352,-0.00320435,0.0611877,0.0696945,0.0593567
22,1,0.000839233,0.00591278,0.063858,0.0695038,0.0592804
22,2,-0.000228882,3.81E-05,0.065155,0.0689697,0.0565338
22,3,-0.000419617,-0.00301361,0.058403,0.0646973,0.0567627
22,4,-0.00164032,-0.00488281,0.0536728,0.0619888,0.0582886
23,0,-0.00087738,-0.0087738,0.0570679,0.0662231,0.0661469
23,1,0.000762939,-0.0043869,0.0530243,0.0681305,0.0645065
23,2,0.00164032,-0.00133514,0.0537872,0.0695801,0.0691986
23,3,0.000991821,0.00259399,0.0566864,0.0710678,0.0730515
23,4,-0.000953674,0.0135803,0.055275,0.0683594,0.0751114
24,0,-0.00370026,0.0272751,0.0570679,0.0669861,0.0773239
24,1,-0.00694275,0.00801086,0.0543594,0.0679016,0.0776291
24,2,-0.00476837,-0.000228882,0.0559235,0.0692749,0.0789642
24,3,-0.00663757,-0.00354767,0.0564957,0.067215,0.0758362
24,4,-0.0056839,0.00102997,0.0567627,0.063858,0.0756836
25,0,-0.00652313,0.0037384,0.0575638,0.0675583,0.0791931
25,1,-0.00736237,0.00282288,0.0583649,0.0746536,0.0793076
25,2,-0.0101852,0.00659943,0.0608444,0.0730896,0.0810242
25,3,-0.00679016,0.00629425,0.0614929,0.0731277,0.0798035
25,4,-0.00667572,0.00629425,0.0588989,0.0695038,0.0782776
26,0,-0.0062561,0.000839233,0.0587463,0.0711441,0.0764465
26,1,-0.00469208,0.00354767,0.0590515,0.0712204,0.0735855
26,2,-0.00259399,-0.00164032,0.0585938,0.0701904,0.0715256
26,3,-0.00377655,-0.0113297,0.054245,0.0660706,0.068512
26,4,-0.00419617,-0.00572205,0.0530624,0.0657654,0.0656509
27,0,-0.00278473,-0.00171661,0.0629044,0.0687408,0.069809
27,1,0.00263214,0.00480652,0.0600052,0.0706863,0.0704193
27,2,0.00469208,0.00865936,0.0590515,0.0734711,0.071373
27,3,0.00812531,0.00461578,0.0581741,0.0711441,0.0738525
27,4,0.00606537,-0.000686646,0.0580597,0.0695038,0.0702667
28,0,0.00988007,-0.0056839,0.0569916,0.0719833,0.0708389
28,1,0.00953674,-0.0143433,0.058403,0.0709534,0.074234
28,2,0.0131989,-0.0165939,0.0550079,0.0750351,0.0737381
28,3,0.00640869,-0.0159836,0.0514984,0.071373,0.0713348
28,4,0.00595093,-0.0111771,0.0492096,0.0688934,0.0699615
29,0,0.00904083,0.0150681,0.0528717,0.0729752,0.0740433
29,1,0.0101471,0.0204468,0.0555801,0.0767136,0.0752258
29,2,0.0130463,0.0149155,0.0587082,0.0798416,0.0776291
29,3,0.0105667,0.0114822,0.056839,0.0793839,0.0748825
29,4,0.00785828,0.00156403,0.0569534,0.0764465,0.0746536
30,0,0.00164032,-0.00347137,0.0580215,0.0761414,0.0720978
30,1,-0.000686646,-0.00255585,0.0603867,0.0777817,0.0717926
30,2,-0.000534058,-0.0019455,0.0621033,0.0778961,0.0675201
30,3,-0.00480652,-0.00705719,0.0574875,0.0750351,0.0652695
30,4,-0.0105286,-0.0185394,0.0570679,0.0703049,0.0627136
31,0,-0.0094223,-0.00881195,0.0572968,0.071373,0.0657654
31,1,-0.00812531,-0.00343323,0.0567627,0.0727463,0.0689697
31,2,-0.00602722,0.00320435,0.0561523,0.0740433,0.070343
31,3,-0.00465393,0.0104904,0.0540924,0.075264,0.0713348
31,4,-0.00522614,-0.00408173,0.053978,0.0709915,0.0723267
32,0,-0.000343323,7.63E-05,0.0545502,0.0711823,0.0716782
32,1,-0.000610352,-0.000114441,0.0574493,0.0688553,0.0679016
32,2,-0.00175476,0.00198364,0.0571823,0.0683975,0.0669861
32,3,-0.00335693,-0.0063324,0.0559616,0.062561,0.063324
32,4,-0.00247955,-0.00530243,0.0540924,0.0561523,0.0623322
33,0,0.000991821,0.00160217,0.0598526,0.0599289,0.0664902
33,1,-0.00144958,0.00343323,0.0596619,0.0682449,0.0733948
33,2,0.00202179,0.00801086,0.0601196,0.0713348,0.0762939
33,3,0.001297,0.01297,0.0580597,0.0691223,0.0741577
33,4,0.00202179,0.00751495,0.0577164,0.068779,0.0756073
34,0,-0.000267029,0.00526428,0.056839,0.0684357,0.0746536
34,1,-0.000610352,0.00694275,0.0600052,0.0684738,0.0757599
34,2,0.00450134,0.00423431,0.0590515,0.0709534,0.078125
34,3,0.00347137,-0.00152588,0.0603104,0.0663757,0.0743866
34,4,0.00152588,-0.00144958,0.0596237,0.0618362,0.0703049
35,0,0.00350952,-0.00171661,0.0636673,0.0696564,0.0770187
35,1,0.00621796,-0.00171661,0.0647354,0.0732803,0.0852203
35,2,0.00427246,-0.00038147,0.0627899,0.076561,0.0851822
35,3,0.00404358,-0.00106812,0.0645065,0.0757217,0.0848389
35,4,0.00190735,-0.0031662,0.0636292,0.0760269,0.0857925
36,0,-0.00278473,-0.00141144,0.0635529,0.0780869,0.0841904
36,1,0.000343323,-0.00213623,0.0621033,0.0749207,0.0791168
36,2,-0.00209808,-0.00244141,0.0593948,0.0770569,0.0753021
36,3,-0.00274658,-0.00358582,0.0574112,0.0714111,0.0624084
36,4,-0.00499725,-0.00652313,0.0563049,0.0675964,0.0498581
37,0,-0.00221252,-0.0012207,0.0576401,0.0722504,0.0454712
37,1,-0.00164032,-0.00133514,0.0598145,0.0749207,0.0550461
37,2,-0.00217438,0.00259399,0.059433,0.0793457,0.0760651
37,3,-0.00263214,-7.63E-05,0.0574493,0.0774002,0.0859833
37,4,-0.0030899,0.00427246,0.0568771,0.0766754,0.0886536
38,0,0.000457764,0.00843048,0.0539017,0.0723648,0.0862503
38,1,-0.00118256,0.00267029,0.0543976,0.071373,0.0951004
38,2,0.00236511,0.00350952,0.0537109,0.0694275,0.104294
38,3,0.00205994,0.00213623,0.0501251,0.0654602,0.0769424
38,4,-0.000495911,-0.001297,0.0466919,0.0622559,0.0495529
39,0,-7.63E-05,0.00339508,0.0550842,0.0720596,0.0505447
39,1,3.81E-05,0.00366211,0.0606155,0.0758743,0.0358582
39,2,-0.000305176,0.0019455,0.0634003,0.0777435,0.0460815
39,3,0.0019455,0.00450134,0.0660324,0.0782776,0.0654221
39,4,-0.000267029,-0.00137329,0.063858,0.0774765,0.0617218
40,0,0.00198364,-0.00335693,0.0627136,0.0751114,0.0563812
40,1,0.00183105,-0.00118256,0.0652313,0.0706863,0.0592041
40,2,0.000114441,-0.00217438,0.0579834,0.0673294,0.0630951
40,3,-0.001297,-0.00774384,0.0568008,0.0644684,0.0738907
40,4,-0.00137329,-0.010376,0.0545883,0.0598907,0.0712585
41,0,0.000572205,-0.00648499,0.0554276,0.0607681,0.0656128
41,1,0.00171661,-0.000610352,0.058136,0.0627518,0.0743484
41,2,0.00148773,-0.000190735,0.0560379,0.0631332,0.105667
41,3,0.0031662,-0.000572205,0.0510406,0.0653458,0.111084
41,4,0.00682831,0.00156403,0.0522232,0.0667191,0.131111
42,0,0.00114441,0.00278473,0.0476456,0.0705338,0.134354
42,1,0.00179291,0.0043869,0.0474548,0.0694275,0.127449
42,2,-0.00152588,0.00370026,0.0487518,0.0684738,0.125046
42,3,-0.0012207,0.000343323,0.0451279,0.0628662,0.0693512
42,4,-0.00530243,-0.00274658,0.0448227,0.059166,0.0165939
43,0,-0.00263214,0,0.044136,0.0600815,0.00507355
43,1,0.00205994,0.00125885,0.0493622,0.0584793,0.0185013
43,2,0.00465393,0.000572205,0.0521469,0.0617218,0.01297
43,3,0.00656128,0.00087738,0.0577164,0.0669098,-0.0357819
43,4,0.00656128,3.81E-05,0.0589752,0.0751495,-0.0509262
44,0,0.00495911,-0.0019455,0.0624466,0.0776291,-0.0203705
44,1,0.00442505,7.63E-05,0.067749,0.081749,-0.048027
44,2,0.00385284,-0.000228882,0.0689697,0.0863647,0.0306702
44,3,-0.000762939,-0.000267029,0.0727081,0.086174,0.105476
44,4,-7.63E-05,0.00259399,0.0711823,0.0838852,0.15625
45,0,0.00202179,0.00236511,0.0727463,0.0822449,0.13485
45,1,-0.000305176,0.00350952,0.0695801,0.0823212,0.11322
45,2,-7.63E-05,0.00518799,0.0701141,0.0798416,0.126724
45,3,0.00164032,0.0038147,0.0662613,0.0766373,0.186386
45,4,0.000534058,0.000915527,0.0598145,0.0698853,0.207634
46,0,-0.000839233,0.00476837,0.0561523,0.0650406,0.208168
46,1,-0.00305176,0.00167847,0.0535965,0.0628281,0.163994
46,2,-0.00629425,0.000991821,0.050087,0.0592422,-0.0094223
46,3,-0.0100327,-0.00190735,0.042305,0.051651,0.0392914
46,4,-0.00759125,-0.0044632,0.044899,0.0546265,0.0748825
47,0,-0.00583649,-0.00247955,0.0528336,0.0654221,0.0993347
47,1,-0.000152588,0.000991821,0.0624847,0.0754547,0.126038
47,2,-0.00320435,-0.000686646,0.0656128,0.078392,0.145569
47,3,-0.0012207,-0.000572205,0.0670624,0.0754929,0.146599
47,4,0.00263214,-0.000419617,0.0673294,0.071907,0.131035
48,0,0.00396729,0.000839233,0.0626373,0.070343,0.0878143
48,1,0.00160217,-0.00087738,0.0618744,0.071106,0.0649643
48,2,0.000915527,-0.00152588,0.0597382,0.0703049,0.0444031
48,3,-0.00167847,-0.000801086,0.0555038,0.0663757,0.0127029
48,4,-0.00175476,-0.00400543,0.0516891,0.0624084,-0.0183868
49,0,0.000686646,-0.00175476,0.0519943,0.0667953,-0.018959
49,1,0.00205994,-0.00297546,0.053215,0.0679398,-0.0769806
49,2,0.000991821,0.00087738,0.0562286,0.0728607,-0.140228
49,3,0.00331879,0.000419617,0.0549316,0.0746536,-0.0835419
49,4,0.00343323,0.00125885,0.0558853,0.0774765,0.0157928
50,0,0.0031662,0.00125885,0.057106,0.0785828,-0.0087738
50,1,0.00537872,0.000686646,0.0595474,0.0749969,0.00541687
50,2,0.00663757,0.0019455,0.057373,0.074234,0.102615
50,3,0.00270844,-0.0025177,0.0564575,0.0698853,0.181351
50,4,-0.00312805,-0.00244141,0.0568771,0.070076,0.126457
51,0,-0.00209808,0.00141144,0.0616837,0.0757599,0.0901413
51,1,-0.00221252,0.00343323,0.0600052,0.0794983,0.127831
51,2,0.000839233,0.00225067,0.0545502,0.0753021,0.155144
51,3,0.000419617,0.0044632,0.0497437,0.0717926,0.201569
51,4,0.00114441,-0.00190735,0.0542068,0.0676727,0.17662
52,0,0.00354767,-0.000534058,0.0547028,0.0681305,0.0676727
52,1,-0.000267029,-0.00354767,0.0563431,0.0682831,-0.0646973
52,2,-0.000534058,-0.00263214,0.0537491,0.0675201,-0.0514221
52,3,-0.00499725,-0.00286102,0.054512,0.0651932,0.0473404
52,4,-0.00499725,-0.00263214,0.0507355,0.061264,0.113144
53,0,-0.00492096,-0.00141144,0.0527573,0.0650024,0.132675
53,1,-0.00377655,0.000305176,0.056572,0.0710297,0.157967
53,2,0.000190735,0.00370026,0.0602722,0.0740433,0.155296
53,3,0.00183105,0.00343323,0.0659561,0.0743103,0.139847
53,4,0.000953674,0.00423431,0.0630951,0.0712967,0.129433
54,0,0.000457764,7.63E-05,0.0598145,0.0722885,0.120506
54,1,0.00232697,0.000610352,0.0616074,0.0706482,0.120773
54,2,-0.000839233,0.000724792,0.0597,0.0724792,0.111008
54,3,0.00038147,-0.00183105,0.0571442,0.068779,0.0832748
54,4,-0.00125885,-0.00514984,0.060463,0.0654984,0.0593948
55,0,-0.00442505,-0.00385284,0.062294,0.0725174,0.0550079
55,1,-0.00179291,0.00160217,0.0628662,0.0734329,0.0579453
55,2,-0.000152588,0.0030899,0.0662994,0.0741577,0.0494766
55,3,0.00183105,0.00114441,0.0624466,0.0746155,0.0471497
55,4,0.00377655,0.00278473,0.0621033,0.0733948,0.0379562
56,0,0.0056076,-0.00198364,0.0608063,0.07267,0.0342178
56,1,0.00514984,-0.00282288,0.0605774,0.0718307,0.0255966
56,2,0.00629425,-0.00514984,0.0593567,0.0720978,0.0279236
56,3,0.00457764,-0.00202179,0.0585175,0.0680923,0.0330734
56,4,-0.000495911,-0.0038147,0.0553894,0.0641251,0.0351334
57,0,-0.000534058,0.000228882,0.0537872,0.0665283,0.0376892
57,1,0.000648499,0.0037384,0.0515747,0.0734711,0.043602
57,2,0.00263214,0.00892639,0.0566101,0.0755692,0.049324
57,3,0.00232697,0.0109863,0.0549698,0.0738144,0.0574493
57,4,0.00202179,0.0146866,0.0520325,0.0717926,0.063858
58,0,0.0025177,0.0127411,0.0481796,0.0690079,0.0597
58,1,0.00114441,0.00709534,0.0514221,0.0701904,0.0587082
58,2,0.000267029,0.00621796,0.0519943,0.0685883,0.0688934
58,3,-0.00217438,-0.00144958,0.0528336,0.0638199,0.0731659
58,4,-0.00473022,-0.0130844,0.0485611,0.0614548,0.0804901
59,0,-0.00427246,-0.00526428,0.0521088,0.0666428,0.0955963
59,1,-0.00175476,-0.0025177,0.0606155,0.0761795,0.104828
59,2,0.000190735,-0.00759125,0.0668716,0.0788116,0.110359
59,3,0.000839233,-0.00579834,0.0642014,0.0795746,0.112381
59,4,-0.00244141,-0.0100708,0.0654984,0.0788879,0.102882
60,0,-0.00228882,-0.0111771,0.0648499,0.0768661,0.0941467
60,1,-0.000152588,-0.0114059,0.0613785,0.0757217,0.092392
60,2,0.000686646,-0.0102997,0.0546646,0.0674438,0.101204
60,3,-3.81E-05,-0.00953674,0.0500107,0.061264,0.0339508
60,4,-0.00247955,-0.0107956,0.0499725,0.0570679,-0.0376129
61,0,-0.00118256,-0.00450134,0.0568771,0.0619125,-0.109482
61,1,0.000495911,0.000839233,0.0646973,0.0701141,-0.105209
61,2,0.00274658,0.0087738,0.0663376,0.0753403,0.0269699
61,3,0.00423431,0.00988007,0.0699997,0.0800323,0.117989
61,4,0.00305176,0.010643,0.0722885,0.0846863,0.16777
62,0,0.00110626,0.0105667,0.0725937,0.082283,0.166702
62,1,0.00274658,0.00946045,0.0679779,0.0792694,0.155296
62,2,0.00293732,0.00682831,0.0632858,0.0710678,0.162582
62,3,-0.00137329,-0.00228882,0.0556564,0.0634003,0.170326
62,4,-0.00564575,-0.0107956,0.0515747,0.0614929,0.164146
63,0,0.00263214,-7.63E-05,0.0522995,0.0660324,0.174637
63,1,0.000190735,0.00770569,0.0513458,0.0657654,0.19455
63,2,0.00415802,0.0152206,0.0494766,0.0642014,0.178146
63,3,0.0056839,0.0181961,0.0496292,0.0640869,0.137177
63,4,-0.00110626,0.0180817,0.0529099,0.063324,0.110359
64,0,0.00274658,0.0226212,0.0485229,0.0646973,0.0826263
64,1,-0.00038147,0.0175858,0.0458145,0.0592422,0.00205994
64,2,0.000267029,0.0107574,0.0463486,0.0579453,-0.143127
64,3,-0.000534058,0.00732422,0.0508118,0.0687408,-0.181808
64,4,-0.00530243,-0.00492096,0.057106,0.0724411,-0.161324
65,0,-0.00370026,-0.0123978,0.0652695,0.083847,-0.0821686
65,1,-0.00225067,-0.0208664,0.0707245,0.090332,-0.108414
65,2,7.63E-05,-0.027771,0.0692749,0.0956726,-0.000228882
65,3,-7.63E-05,-0.0292587,0.0699615,0.092392,0.154343
65,4,0.00141144,-0.0268936,0.0671768,0.0849152,0.23777
66,0,0.00282288,-0.0230026,0.0613403,0.0787354,0.214005
66,1,-7.63E-05,-0.0198746,0.0536346,0.0648499,0.136375
66,2,0.00160217,-0.0141907,0.0500107,0.052948,0.101852
66,3,0.00221252,-0.00190735,0.0439072,0.0484848,0.176086
66,4,-0.000419617,-0.000495911,0.0456238,0.0466919,0.208588
67,0,-0.00312805,0.0101852,0.0542068,0.0620651,0.069046
67,1,-0.000915527,0.00984192,0.0606537,0.0745392,0.0485611
67,2,0.00156403,0.0170135,0.057106,0.073967,0.1548
67,3,0.000495911,0.0205231,0.0550461,0.0733566,0.234146
67,4,0.00190735,0.0115967,0.0596237,0.0763702,0.0746536
68,0,0.00526428,0.0191498,0.0609589,0.08255,-0.0691605
68,1,0.00354767,0.0243759,0.062027,0.0804138,0.0168991
68,2,0.000343323,0.0242996,0.0557709,0.0734711,0.130844
68,3,-0.0018692,0.0243759,0.0487137,0.0669098,0.0712204
68,4,-0.00278473,0.0415421,0.0509644,0.0646973,-0.0605774
69,0,0,0.0178909,0.050621,0.0682449,-0.226479
69,1,-7.63E-05,-0.0126266,0.0550079,0.0669098,-0.136948
69,2,0.00610352,-0.0198364,0.0535583,0.0732803,0.0277328
69,3,0.00385284,-0.0186157,0.0506973,0.0624466,-0.0299835
69,4,0.00274658,-0.0257874,0.0580978,0.0693893,-0.0292206
70,0,0.000762939,-0.0310135,0.0719452,0.0765228,-0.15461
70,1,0.000686646,-0.0272751,0.0798416,0.0846481,-0.0164413
70,2,0.000114441,-0.0114822,0.0808334,0.0922775,0.225983
70,3,-0.00240326,-0.00476837,0.0748444,0.0897217,0.294342
70,4,-0.0030899,-0.00751495,0.0703812,0.0814056,0.164108
71,0,-0.0038147,-0.00179291,0.0656128,0.0737381,0.175819
71,1,-0.00328064,-0.00396729,0.0587845,0.064621,0.279121
71,2,-0.00171661,0.0103378,0.0523758,0.0614166,0.296593
71,3,-0.00175476,0.0124741,0.0485229,0.0585556,0.279579
71,4,-0.00038147,0,0.0505447,0.0539017,0.259705
72,0,-0.00160217,0.00102997,0.0497818,0.0566864,0.227737
72,1,-0.0038147,0.00198364,0.0508499,0.0592041,0.180244
72,2,-0.00576019,-0.00484467,0.0514221,0.0614929,0.162163
72,3,-0.00682831,-0.0102615,0.0469208,0.059433,0.151596
72,4,-0.00823975,-0.0157166,0.0475311,0.057106,0.151024
73,0,-0.00762939,-0.00846863,0.053215,0.0551987,0.0838852
73,1,-0.00312805,0.00144958,0.0566101,0.0634384,-0.00282288
73,2,0.00133514,0.00423431,0.0558472,0.0673676,-0.06073
73,3,0.00156403,0.0030899,0.0574493,0.0696182,-0.0645065
73,4,0.00179291,0.0030899,0.0580597,0.0736237,-0.112381
74,0,0.000801086,0.00652313,0.0532913,0.0756836,-0.116043
74,1,-0.00320435,0.0115585,0.0497818,0.0716782,-0.119019
74,2,-0.00202179,0.0159836,0.0462341,0.0625992,-0.0550079
74,3,-0.000152588,0.0179291,0.0450897,0.0657272,0.0362778
74,4,-0.000534058,0.00785828,0.0469589,0.0650024,0.128021
75,0,-3.81E-05,0.00190735,0.057373,0.0717163,0.158234
75,1,0.00549316,0.00274658,0.0694656,0.0866318,0.085144
75,2,0.00354767,0.00038147,0.077095,0.0971222,0.0610352
75,3,0.00419617,-0.00534058,0.0859451,0.101166,-0.00598907
75,4,0.00640869,7.63E-05,0.087471,0.097084,0.0735855
76,0,0.00621796,-0.000648499,0.0782394,0.0925446,0.142365
76,1,0.0056839,-0.00205994,0.0731277,0.0875473,0.123444
76,2,0.00366211,-0.00175476,0.0680161,0.0788116,-0.0368881
76,3,0.0037384,-0.00518799,0.0533295,0.0662613,-0.211296
76,4,0.00125885,-0.00846863,0.0466156,0.0619125,-0.15213
77,0,0.00671387,-0.0100708,0.0553131,0.0743484,0.0646591
77,1,0.00614166,-0.00514984,0.0601959,0.0849915,0.0680923
77,2,0.0100327,0.00289917,0.0645065,0.0872803,0.0232315
77,3,0.0122833,0.00213623,0.0682068,0.0790787,-0.0136566
77,4,0.0129318,-0.000114441,0.0600433,0.063324,0.123177
78,0,0.00843048,0.000839233,0.0502396,0.0549698,0.224838
78,1,0.00518799,0.00110626,0.0460434,0.0516129,0.32299
78,2,0.00415802,0.00137329,0.0456619,0.0527954,0.174713
78,3,-0.000534058,0.000953674,0.0432205,0.0461578,-0.0324249
78,4,-0.00545502,0.00217438,0.0345612,0.0442123,-0.00865936
79,0,-0.00682831,0.00854492,0.0346375,0.053215,0.0220871
79,1,-0.000991821,0.00659943,0.0485992,0.0608063,0.1931
79,2,-0.00545502,0.00709534,0.0629425,0.0753021,-0.00740051
79,3,-0.000839233,0.0146484,0.0764084,0.0925064,-0.151558
79,4,-0.00148773,0.00465393,0.0790405,0.0946045,0.0719452
80,0,0.000419617,-0.00617981,0.0722885,0.090065,0.257378
80,1,-0.00247955,-0.00339508,0.0655746,0.087738,0.235786
80,2,-0.00476837,0.00335693,0.0665665,0.0862885,0.157471
80,3,-0.00667572,-0.00282288,0.0560379,0.0703812,0.156708
80,4,-0.00526428,0.00175476,0.0494766,0.0617981,0.19371
81,0,-0.0069046,0.0063324,0.0480652,0.057106,0.199165
81,1,-0.00434875,-0.00720978,0.0471878,0.0600815,0.169106
81,2,-0.00217438,-0.0112152,0.0437546,0.0628281,0.168381
81,3,-0.00511169,-0.00614166,0.0419235,0.0600815,0.161705
81,4,-0.00682831,-0.00442505,0.0391388,0.0508499,0.139809
82,0,-0.00282288,-0.0101852,0.0386429,0.0539398,0.126495
82,1,-0.0050354,-0.00892639,0.0381088,0.0550842,0.0775528
82,2,-0.00469208,-0.00476837,0.0440216,0.0603104,-0.0120544
82,3,-0.00171661,-0.00854492,0.0489426,0.0624847,-0.0476837
82,4,-0.00190735,-0.00659943,0.0537872,0.0574875,-0.0376511
83,0,0.00179291,0.000686646,0.0579834,0.0684738,0.0553131
83,1,0.00179291,0.000839233,0.0645447,0.0782394,0.0611877
83,2,0.00602722,0.000991821,0.0706482,0.0831985,0.0535965
83,3,0.00400543,0.00701904,0.0730133,0.0839615,0.0423431
83,4,0.00419617,0.00965118,0.0729752,0.0833893,0.0291443
84,0,0.00118256,0.00679016,0.0710297,0.0810242,0.0520325
84,1,0.00415802,0.0107193,0.068512,0.0791931,0.0639343
84,2,0.00274658,0.011673,0.0661469,0.0758743,0.042572
84,3,0.000152588,0.00434875,0.0667953,0.0765228,0.0265121
84,4,0.000839233,0.00350952,0.0608826,0.0730133,0.0171661
85,0,0.00267029,0.00396729,0.060463,0.0756836,0.00759125
85,1,0.00202179,0.00221252,0.0617981,0.0788498,-0.00465393
85,2,0.00221252,-0.017128,0.0653458,0.0794983,-0.0272369
85,3,0.0037384,-0.0108719,0.067215,0.0762558,-0.0296783
85,4,0.00495911,0.0106812,0.0679779,0.0790405,0.0246048
86,0,0.00274658,0.00804901,0.0656509,0.0754547,0.0661087
86,1,0.00244141,0.014267,0.0667191,0.0735092,0.0808334
86,2,0.00179291,0.00869751,0.0678253,0.0704575,0.0868607
86,3,0.000648499,0.00347137,0.0637436,0.0676727,0.0941467
86,4,-0.00038147,-0.00598907,0.0553131,0.0618744,0.0939941
87,0,0.00301361,-0.00263214,0.0554276,0.0655746,0.101471
87,1,-0.000152588,-0.0019455,0.0579834,0.0695419,0.102615
87,2,-0.00183105,-0.00396729,0.0593185,0.0702286,0.10498
87,3,0.00137329,-0.00431061,0.0594711,0.0685883,0.10334
87,4,0.00164032,-0.00350952,0.0596619,0.0707626,0.103035
88,0,0.00244141,-3.81E-05,0.0548172,0.0696564,0.102654
88,1,0.00228882,0.00247955,0.0537109,0.0675201,0.101128
88,2,0.00259399,0.00556946,0.0477982,0.0677109,0.098114
88,3,-0.0012207,-0.00102997,0.0460815,0.0644684,0.0960922
88,4,0.000152588,0.00118256,0.0454712,0.0619125,0.0897598
89,0,-0.00396729,0.00411987,0.0473404,0.0632477,0.0902939
89,1,-0.00282288,-0.0012207,0.0498199,0.0656509,0.0934219
89,2,0.000839233,-0.00732422,0.0513077,0.071106,0.0912857
89,3,0,-0.00675201,0.0512695,0.0717926,0.0841141
89,4,-0.00198364,-0.00484467,0.0539017,0.0720978,0.0780106
90,0,-0.00576019,-0.000648499,0.0550079,0.0735474,0.0754547
90,1,-0.0043869,-0.00377655,0.0561142,0.0754166,0.0703812
90,2,-0.00480652,-0.00713348,0.0554276,0.0736237,0.0683975
90,3,-0.00583649,-0.00923157,0.0556183,0.0748062,0.0683594
90,4,-0.00984192,-0.0146866,0.0515366,0.0687027,0.0650024
91,0,-0.00282288,-0.0213242,0.0535583,0.0719833,0.0661087
91,1,0.000305176,0.00610352,0.0571823,0.0733185,0.0629044
91,2,0.00217438,0.0151062,0.0572968,0.0745392,0.0633621
91,3,-7.63E-05,-0.00343323,0.057106,0.0766373,0.0629807
91,4,-0.000343323,-0.00270844,0.0589752,0.0746918,0.0650406
92,0,0.00339508,0.0210953,0.0588989,0.0739288,0.058136
92,1,-0.000305176,-0.00606537,0.0601578,0.072403,0.0580215
92,2,0.000724792,-0.00797272,0.0606155,0.0715637,0.0591278
92,3,0.0030899,0.0149918,0.0527954,0.0698471,0.0598907
92,4,-0.00167847,0.0237274,0.0577545,0.0682831,0.0594711
93,0,-0.000801086,-0.0189972,0.0562286,0.0684738,0.0633621
93,1,0.00736237,-0.0252151,0.0586319,0.0675583,0.0707626
93,2,0.00743866,0.0244904,0.0626755,0.0709152,0.073204
93,3,0.0102615,0.0239944,0.0647736,0.0714493,0.0744247
93,4,0.00923157,0.00297546,0.0623703,0.0688553,0.0730515
94,0,0.00797272,-0.00900269,0.063324,0.0696945,0.073967
94,1,0.00648499,-0.0138092,0.063858,0.0720215,0.0753403
94,2,0.00728607,0.00354767,0.0644684,0.073204,0.075264
94,3,0.00267029,-0.0217438,0.0634766,0.0693512,0.0778961
94,4,-0.0050354,0.00709534,0.0600052,0.0663757,0.0708389
95,0,-0.000839233,0.0828171,0.0630569,0.0685883,0.07164
95,1,0.00419617,0.0852585,0.0608063,0.0688934,0.0769043
95,2,0.00480652,0.0188065,0.0623703,0.0722504,0.0782013
95,3,0.00240326,-0.0158691,0.0636673,0.0731659,0.0749969
95,4,0.00392914,-0.00495911,0.063591,0.0721359,0.0776672
96,0,0.000152588,-0.0260544,0.0680542,0.0723267,0.074501
96,1,-0.00282288,-0.0481033,0.0651169,0.070076,0.0741196
96,2,-0.000991821,-0.0601959,0.059967,0.0673294,0.0699615
96,3,-0.00167847,-0.039711,0.0582123,0.062294,0.065155
96,4,-0.00457764,-0.0229645,0.0422668,0.0600433,0.0585938
97,0,-0.00354767,-0.0195313,0.0494766,0.0688934,0.0603485
97,1,-0.0025177,0.0019455,0.0627136,0.0766373,0.0670624
97,2,-0.00164032,0.030632,0.0593185,0.0728226,0.0746918
97,3,0.000152588,0.0315094,0.0629044,0.0735474,0.0769043
97,4,0.00213623,0.00728607,0.0605392,0.0780106,0.0771713
98,0,0.00347137,0.0116348,0.0513458,0.0757599,0.0812149
98,1,-0.0018692,0.00953674,0.032959,0.0708389,0.0762939
98,2,-0.00320435,-0.0186157,0.0404739,0.0719833,0.0769043
98,3,-0.00858307,-0.000419617,0.0881195,0.0711823,0.083046
98,4,-0.0063324,0.00614166,0.100365,0.0645828,0.0791168
99,0,-0.00846863,0.00843048,0.0872803,0.0650406,0.0830841
99,1,-0.00400543,-0.00904083,0.0596237,0.0690842,0.0870514
99,2,-0.00312805,-0.00823975,0.0680161,0.067749,0.0833511
99,3,0,-0.0136566,0.0363922,0.0681305,0.0761795
99,4,-0.00144958,-0.031929,0.0170517,0.0652313,0.0654221
100,0,-0.000305176,-0.0282288,0.0428772,0.0727081,0.0548935
100,1,-0.000762939,-0.0166321,0.0149918,0.0775146,0.0458527
100,2,-0.000343323,0.0192642,0.01091,0.0728607,0.0644302
100,3,0.001297,0.0460815,-0.0264359,0.0662613,0.0743866
100,4,0.000953674,0.028038,0.0144577,0.0559235,0.0758743
101,0,0.00179291,0.00907898,0.0577927,0.0497818,0.0799561
101,1,0.00652313,-0.00431061,0.106697,0.0491333,0.080452
101,2,0.00507355,0.00202179,0.14843,0.0547028,0.0800323
101,3,0.00221252,-0.0139236,0.133247,0.0668335,0.0711823
101,4,0.0018692,0.0411987,0.106277,0.0979614,0.0672913
102,0,0.00247955,0.0844955,0.0989532,0.133743,0.0727081
102,1,0.00198364,0.0323105,-0.00717163,0.107422,0.0718307
102,2,0.000305176,-0.0232697,-0.0801086,0.0855637,0.0655365
102,3,-0.000991821,-0.0440979,0.0423431,0.0810623,0.0548553
102,4,-0.00431061,-0.0420761,0.0824356,0.0847626,0.0570297
103,0,-0.00339508,-0.02388,0.0380707,0.106049,0.0691986
103,1,0.000991821,0.0223541,0.0531387,0.117035,0.0751114
103,2,0.00419617,0.0216293,0.115395,0.0873947,0.0809479
103,3,0.00282288,0.0193787,0.0778198,0.0424957,0.0763702
103,4,0.00274658,0.0363541,0.0630951,0.0440216,0.0761795
104,0,0.00255585,0.00991821,0.065918,0.0509262,0.0731277
104,1,7.63E-05,-0.0424194,0.0662613,0.020256,0.0699997
104,2,0.000915527,-0.0377655,0.0663757,0.0308609,0.076561
104,3,-0.00225067,-0.0122452,0.05867,0.0535202,0.0707626
104,4,-0.00198364,-0.0317764,0.0450134,0.0237656,0.0621414
105,0,0.00038147,-0.0110626,0.0809097,0.0353622,0.0711823
105,1,0.000305176,-0.0257874,0.112038,0.0627518,0.0665283
105,2,0.00476837,-0.0266647,0.128021,0.0878143,0.0655365
105,3,0.0087738,-0.0107956,0.159492,0.0756454,0.0656891
105,4,0.00671387,0.00331879,0.138245,0.0966644,0.0643158
106,0,0.00511169,-0.00789642,0.0797272,0.108604,0.0731277
106,1,-0.00183105,-0.0239944,-0.0760651,0.0794601,0.0816345
106,2,0.000305176,-0.00980377,-0.0534058,0.0638199,0.0902176
106,3,-0.000343323,-0.00770569,0.0044632,0.0457001,0.0841141
106,4,-0.0037384,-0.0105286,0.053978,0.0206757,0.0760269
107,0,-0.00415802,-0.000724792,0.0439835,0.0403595,0.0753403
107,1,-0.0019455,0.0204849,0.00919342,0.069313,0.0706863
107,2,0.00156403,0.0338364,0.0218582,0.111351,0.0680542
107,3,-0.00190735,0.0136566,0.0482941,0.128326,0.0705338
107,4,-0.00225067,0.0225449,0.0386047,0.129089,0.0668716
108,0,-0.00297546,0.0490952,0.0133133,0.0918198,0.0543976
108,1,-0.00282288,0.0598907,-0.0414276,0.0759888,0.050087
108,2,-0.00278473,0.0323486,0.0144196,0.0855255,0.0577545
108,3,-0.00137329,-0.0050354,0.0721741,0.0563431,0.0653076
108,4,-0.00209808,-0.00629425,0.0745392,0.0465775,0.062027
109,0,0.000991821,0.0251007,0.133743,0.0510788,0.0658798
109,1,0.00526428,-0.0193405,0.184631,0.039711,0.070076
109,2,0.00389099,-0.0301743,0.145645,0.0209808,0.072937
109,3,0.00339508,0.0128555,0.0870895,0.044899,0.0731277
109,4,0.00377655,0.0162125,0.0271606,0.0245667,0.078125
110,0,-0.00125885,0.0273132,0.0509644,0.0368118,0.0820923
110,1,-0.00366211,0.0317764,0.0286102,0.091095,0.0893784
110,2,-0.00724792,0.0114822,0.0164032,0.171738,0.0790024
110,3,-0.00911713,-0.00595093,0.0677872,0.161095,0.0689697
110,4,-0.00946045,-0.00225067,0.219765,0.131912,0.059967
111,0,-0.00671387,-0.020752,0.238914,0.11631,0.0625229
111,1,-0.0018692,-0.0866699,-0.0363922,0.0914001,0.0625992
111,2,0.00106812,-0.0794601,-0.100327,0.0430298,0.0749207
111,3,0.00637054,-0.0640106,-0.06073,-0.00591278,0.0878525
111,4,0.00652313,-0.0472641,0.0038147,-0.0203323,0.0959015
112,0,0.00919342,-0.0143051,0.0609207,-0.0258636,0.0980759
112,1,0.00881195,0.0593948,0.143318,0.101852,0.0914383
112,2,0.00610352,0.148888,0.107841,0.139046,0.091095
112,3,0.00759125,0.039978,0.0456619,0.163612,0.0828171
112,4,0.00164032,0.052681,0.0491333,0.133476,0.0717163
113,0,-0.00270844,0.0437927,0.054245,0.0933075,0.0566101
113,1,0.00038147,0.0150681,0.174484,0.0944138,0.0467682
113,2,0.0038147,-0.00774384,0.132751,0.0430298,0.0507736
113,3,0.00537872,-0.0281525,0.0900269,0.0174332,0.0616074
113,4,0.00225067,-0.0291824,-0.010643,0.029335,0.0716019
114,0,0.00404358,-0.0359726,-0.0798416,0.0152588,0.0829315
114,1,-0.000152588,-0.0469589,-0.15007,-0.00747681,0.0758362
114,2,-0.000457764,-0.0379181,-0.0388336,0.022583,0.0693512
114,3,-0.00488281,-0.0234222,0.278931,0.027504,0.069046
114,4,-0.00751495,-0.0295639,0.384941,0.0622559,0.0598145
115,0,-0.00484467,-0.0277328,0.154419,0.138359,0.0588989
115,1,0.000648499,-0.0230789,-0.0848389,0.209198,0.0710297
115,2,-0.000267029,-0.0211716,-0.176315,0.0891876,0.0751495
115,3,-7.63E-05,-0.00495911,-0.267105,0.0712967,0.068779
115,4,-0.00289917,-0.00183105,-0.087471,0.057373,0.0679779
116,0,3.81E-05,-0.00598907,0.0382614,0.0744247,0.0730896
116,1,-0.00102997,0.00392914,0.0892258,0.0129318,0.0727463
116,2,0.00087738,0.00263214,0.156631,0.00759125,0.0685501
116,3,0.000572205,0.00179291,0.228653,0.0269699,0.0806427
116,4,0.000991821,0.0069809,0.178223,0.014534,0.0735474
117,0,-0.00228882,0.00167847,0.0665665,0.0571823,0.063591
117,1,-0.00175476,0.0323486,0.119934,0.100594,0.0762939
117,2,0.00202179,0.0637817,0.0928497,0.0469208,0.0838852
117,3,0.000190735,0.0468826,0.13279,0.0341797,0.0902939
117,4,-0.00305176,0.0236893,0.292091,0.0154495,0.0867844
118,0,-0.00541687,0.0195313,0.0878906,0.049324,0.0758743
118,1,-0.00740051,0.00499725,0.0296402,0.0662231,0.0409698
118,2,-0.00038147,0.0123215,-0.041008,0.282059,0.0230408
118,3,0.00499725,0.00862122,-0.0477219,0.258408,0.0408554
118,4,0.00263214,-0.00221252,-0.0945282,0.294456,0.0535202
119,0,0.00480652,-0.00782013,-0.115051,0.2425,0.0589752
119,1,0.0100327,-0.00106812,-0.044136,0.198517,0.0811386
119,2,0.00286102,-0.0044632,0.0192261,0.121689,0.105171
119,3,-0.00171661,-0.00614166,0.19371,-0.0820541,0.12886
119,4,-0.00305176,-0.00114441,0.247612,-0.141373,0.13298
120,0,-0.00164032,7.63E-05,0.219154,-0.119743,0.104866
120,1,-0.000686646,-0.00793457,0.247269,0.0374985,0.0777435
120,2,-0.00335693,-0.0124359,0.305634,0.198212,0.0337982
120,3,-0.0104141,0.00476837,0.335922,0.0776672,0.0313568
120,4,-0.0164795,0.0215912,-0.231438,-0.0153351,0.0537109
121,0,-0.00766754,0.00968933,-0.158539,-0.0918198,0.0726318
121,1,0.0075531,0.0109863,-0.0979233,-0.0634384,0.0879288
121,2,0.0142288,-0.00988007,-0.112457,0.0406647,0.0875854
121,3,0.0157166,-0.021553,-0.103569,0.0898743,0.0728226
121,4,0.0108337,-0.030899,-0.152016,0.0770187,0.0444794
122,0,0.00331879,-0.0181961,-0.0337219,0.0152969,0.0411606
122,1,0.00137329,-0.0088501,0.0688171,0.0541687,0.0476456
122,2,0.00804901,-0.0050354,-0.0987625,-0.0570679,0.0682068
122,3,0.00713348,-0.0286484,-0.0350952,-0.0975037,0.0995255
122,4,-0.00350952,-0.0313187,0.174866,-0.000762939,0.115814
123,0,-0.0101471,-0.00591278,0.150185,0.277977,0.098114
123,1,-0.0087738,-0.0116348,0.160294,0.501862,0.0861359
123,2,-0.0172806,-0.0144577,0.206795,0.149727,0.0704956
123,3,-0.0151825,-0.000648499,0.232773,0.0835037,0.0521469
123,4,-0.0108719,0.00709534,0.315552,0.0539398,0.0294876
124,0,0.00118256,0.0162888,0.172195,0.197258,0.0215149
124,1,0.00713348,0.0218582,-0.146103,0.216331,0.0261307
124,2,0.0155258,0.0352859,-0.0839615,0.0873947,0.0687408
124,3,0.00686646,0.0266647,-0.0510788,0.0511551,0.109634
124,4,0.00225067,0.0292587,-0.00297546,0.0358582,0.104866
125,0,0.000457764,0.0530624,0.0507736,0.102768,0.096817
125,1,0.0118256,0.0347519,0.105629,-0.0373459,0.103645
125,2,0.019455,-0.0152588,0.154877,-0.0411987,0.0960159
125,3,0.012207,-0.0283051,0.0699615,-0.00148773,0.0783539
125,4,-0.00858307,-0.0377274,-0.0121689,-0.0515366,0.0494385
126,0,-0.0148392,-0.038681,0.0954819,-0.133667,0.0447845
126,1,-0.001297,-0.0305557,0.167351,0.0149918,0.0800323
126,2,0.0141144,-0.0207138,0.26535,0.201149,0.079155
126,3,0.00766754,-0.0106812,0.265427,0.200424,0.0737
126,4,-0.00423431,0.0360107,0.0487518,0.10952,0.071907
127,0,-0.00125885,0.057106,-0.0271225,0.0320816,0.0894928
127,1,0.0154877,0.0665283,0.0217819,0.126343,0.116043
127,2,0.0342941,0.0139618,0.0533676,0.189209,0.124397
127,3,0.0322342,-0.00274658,0.083313,0.0830078,0.11055
127,4,0.00507355,-0.0056076,0.144539,-0.085907,0.0688934
128,0,-0.0322342,-0.0331879,0.152931,-0.187378,0.0453186
128,1,-0.0392151,-0.0243378,0.170021,-0.0324249,0.0429916
128,2,-0.0170135,-0.0214005,0.0548553,0.244713,0.045433
128,3,-0.0120926,-0.0206757,-0.25753,0.194664,0.0203323
128,4,0.00419617,-0.0342941,-0.215912,0.0593567,0.00968933
129,0,0.00427246,-0.0100327,-0.133743,-0.111046,0.0182724
129,1,-0.0243759,-0.0261688,-0.153694,0.0899124,0.0476456
129,2,-0.0418854,-0.0216293,-0.130043,0.0452042,0.0575638
129,3,-0.0336838,-0.00389099,-0.145073,0.126495,0.0871658
129,4,-0.0189209,-0.00247955,-0.0997162,0.122604,0.105629
130,0,-0.00976563,0.0088501,0.212669,-0.0848389,0.130119
130,1,0.00583649,0.00114441,0.177727,-0.0519943,0.120125
130,2,0.0128937,0.00160217,0.256653,0.151596,0.10376
130,3,0.0237274,-0.0069809,0.277252,0.381889,0.0383377
130,4,0.031929,-0.0120163,0.185699,0.508385,0.00213623
131,0,0.0288773,0.0056076,-0.045166,0.116997,0.0173187
131,1,0.0255585,0.0181198,0.0517654,0.0920486,0.0515366
131,2,0.0212479,0.0249481,0.0891495,-0.0368118,0.101013
131,3,0.0189972,0.0307083,0.0681305,0.0327301,0.0946808
131,4,0.0147247,0.0810623,0.0310516,0.0587082,0.0483322
132,0,0.0143051,0.0867844,-0.137634,-0.00762939,0.0320816
132,1,0.0155258,0.0260162,0.15274,0.0144577,0.0714493
132,2,-0.00087738,-0.0194931,0.365982,-0.00293732,0.09655
132,3,-0.00640869,-0.0206375,0.476036,-0.017128,0.0926971
132,4,-0.00457764,-0.0548172,0.313683,-0.0123215,0.0783157
133,0,-0.00415802,-0.0202179,0.00534058,-0.0802231,0.0576782
133,1,-0.00358582,0.0689316,-0.23056,-0.00762939,0.0466156
133,2,-0.00564575,0.157661,-0.110245,0.0141144,0.0629807
133,3,-0.0101089,0.0108719,-0.151634,0.0140762,0.0847244
133,4,-0.00652313,-0.0836945,-0.119705,0.113602,0.0762939
134,0,0.000572205,-0.0569916,0.40329,0.0971985,0.0668335
134,1,0.00839233,-0.0334549,0.123672,0.232353,0.0658417
134,2,0.00511169,-0.00339508,-0.176964,0.355148,0.0838852
134,3,0.00400543,-0.0088501,-0.307312,0.337524,0.103912
134,4,0.00164032,-0.00946045,-0.082016,0.453033,0.123596
135,0,-0.00782013,-0.0488663,-0.0123215,0.32093,0.130768
135,1,0.00110626,-0.0272369,0.064621,0.14782,0.122528
135,2,-0.00457764,-0.0255585,0.120239,0.0735092,0.109558
135,3,-0.0203323,0.00114441,0.170937,-0.107956,0.106277
135,4,-0.0564957,-0.0246429,0.247192,-0.266533,0.0891113
136,0,-0.0691223,-0.0534058,0.286674,-0.249405,0.0549698
136,1,-0.0639343,-0.0193405,0.218201,-0.230637,0.056076
136,2,-0.0387573,-0.0436783,0.300827,0.0320435,0.0872803
136,3,-0.0125122,-0.073967,0.205917,0.111885,0.0656891
136,4,-0.00385284,-0.0352859,0.152893,0.14267,0.0178528
137,0,-0.00106812,-0.00450134,0.0782013,0.0779724,0.00854492
137,1,0.0107574,0.021553,-0.0935745,0.0382996,0.0173187
137,2,0.0276566,-0.00476837,-0.361786,0.0837708,0.0345612
137,3,0.0414276,0.0127029,-0.208588,0.143585,0.0684357
137,4,0.0521469,0.00621796,-0.0162888,0.0939941,0.0645447
138,0,0.0378799,-0.104637,0.0775146,-0.0544739,0.0395203
138,1,0.0188828,0.0400925,0.107536,-0.125237,0.0373077
138,2,0.0278473,0.252914,0.0266266,-0.0523376,0.0520325
138,3,0.031662,0.151329,0.101089,-0.0366211,0.0728607
138,4,0.0266647,0.10994,0.0574112,-0.0198364,0.0807953
139,0,0.0148392,0.0278854,0.0764084,0.0190735,0.0900269
139,1,0.00217438,0.033493,0.140572,0.0843048,0.100861
139,2,0.0018692,0.0177002,0.121918,0.124207,0.114403
139,3,0.00518799,0.00038147,0.0986099,0.105553,0.10952
139,4,0.00762939,0.0271225,0.112152,0.117531,0.109825
140,0,0.0143433,-0.034523,0.112991,0.120544,0.10128
140,1,0.00991821,-0.0865173,0.116348,0.0590897,0.0879669
140,2,0.00389099,-0.120049,0.107422,0.0481415,0.0669098
140,3,0.00247955,-0.114479,0.100327,0.114746,0.0543594
140,4,0.000305176,-0.0434113,0.0130081,0.177879,0.0624084
141,0,-0.0031662,-0.0428772,-0.0160217,0.134811,0.0722122
141,1,-0.00629425,-0.0167465,0.00423431,0.183678,0.0985718
141,2,-0.0125885,0.0520325,0.0312424,0.0403976,0.0993729
141,3,-0.0154877,0.0502014,0.0734329,0.0120926,0.073204
141,4,-0.0124359,0.0471878,0.234032,0.11425,0.0563812
142,0,-0.0123978,0.135117,0.114517,0.142059,0.0630188
142,1,-0.00812531,0.0848389,0.0334549,0.248108,0.0800323
142,2,-0.00770569,-0.00480652,-0.110054,0.348549,0.0907898
142,3,-0.0166702,-0.0290298,-0.0514984,0.368767,0.0684357
142,4,-0.0218964,-0.0375748,-0.0697708,0.300407,0.0379181
143,0,-0.0156403,-0.0502777,-0.030899,0.179291,0.041275
143,1,-0.0110245,-0.0812149,-0.208931,0.0792313,0.0354004
143,2,-0.00534058,-0.0922012,-0.0750732,-0.0161362,0.0230789
143,3,0.0012207,-0.0670242,0.183792,-0.0212097,0.0297928
143,4,-0.00232697,-0.032196,0.0063324,-0.0281143,0.0445938
144,0,-0.00614166,0.030899,0.0362778,-0.0276947,0.0737762
144,1,-0.00198364,0.0629044,0.0783539,-0.093956,0.0856018
144,2,-0.00232697,0.0598145,0.0458908,-0.126305,0.0967026
144,3,-0.00236511,0.00972748,0.112038,-0.10704,0.0977707
144,4,-0.00400543,-0.0175476,0.208473,-0.107689,0.0933075
145,0,-0.00236511,-0.0357056,0.188637,-0.112076,0.0794601
145,1,-0.000801086,-0.0313568,0.249443,-0.0509644,0.085144
145,2,0.00118256,-0.00782013,0.338516,-0.00679016,0.0772095
145,3,0.0062561,0.0259781,-0.0875854,0.0615692,0.0805283
145,4,0.0056076,0.00629425,-0.231209,0.128899,0.0860977
146,0,0.00686646,0.0082016,0.0272751,0.159378,0.0909805
146,1,0.00759125,-0.00038147,0.0882721,0.149384,0.0868988
146,2,0.00762939,-0.0075531,0.0239182,0.121956,0.0694275
146,3,0.00854492,-0.00125885,0.0502396,0.122566,0.0697327
146,4,0.00873566,-0.00659943,0.154457,0.103455,0.0644302
147,0,0.00591278,-0.00701904,0.0846863,0.0730133,0.0634766
147,1,0.00900269,0.0355148,0.0364685,0.0621796,0.0630569
147,2,0.00785828,0.038681,0.0576401,0.0494766,0.0662613
147,3,0.0069046,-0.000801086,0.0834656,0.0601578,0.062294
147,4,0.0075531,-0.0114059,0.100327,0.0482559,0.0534058
148,0,0.00564575,0.0794601,0.113373,0.0302887,0.0606155
148,1,0.0044632,0.041008,0.129585,0.0296021,0.072937
148,2,7.63E-05,0.0624847,0.168991,0.050621,0.0762177
148,3,-0.00110626,0.0317383,0.217171,0.0554276,0.0724792
148,4,-0.000953674,0.00324249,0.20237,0.0349426,0.0537109
149,0,0.000419617,-0.0156784,0.106926,0.0506973,0.0451279
149,1,0.00320435,-0.0294876,0.0821304,0.0912094,0.0550079
149,2,0.00431061,-0.025177,-0.0941467,0.213699,0.0722122
149,3,0.00534058,-0.0299072,-0.0967407,0.352783,0.100822
149,4,0.0043869,-0.033989,-0.00747681,0.331841,0.105247
150,0,0.000534058,-0.0298309,-0.079422,0.327835,0.105515
150,1,-0.000991821,-0.0260544,-0.139503,0.185356,0.0619125
150,2,-0.00144958,-0.0196075,-0.0862503,0.0835037,0.0516891
150,3,-0.00408173,-0.00125885,-0.0701904,0.0238037,0.0609589
150,4,-0.00400543,-0.00926971,0.0124741,-0.0404358,0.0570297
151,0,-0.0031662,-0.00679016,0.0419998,-0.0614166,0.0543594
151,1,-0.00720978,-0.00171661,0.0192642,-0.063858,0.0653839
151,2,-0.00202179,0.0130081,0.0484467,-0.0307465,0.0723648
151,3,-0.00102997,0.00968933,0.122795,-0.00190735,0.0808716
151,4,0.000495911,-0.0217438,0.148659,0.0180054,0.0798798
152,0,-0.000991821,-0.0133514,0.141907,0.0326538,0.0871658
152,1,-0.00850677,-0.0111008,0.101738,0.0340652,0.0879288
152,2,-0.00938416,-0.00179291,0.0997543,0.0144577,0.0856781
152,3,-0.00514984,0.00190735,0.154915,-0.00976563,0.0770187
152,4,-0.00785828,-0.00461578,0.115356,0.00606537,0.072403
153,0,-0.00621796,-0.00404358,0.0839996,0.050354,0.0733948
153,1,-0.00476837,0.0119781,0.0950623,0.0893021,0.0830841
153,2,-0.00431061,0.0312042,0.0894928,0.090332,0.0865936
153,3,-0.000572205,0.0155258,0.0860214,0.057106,0.0837326
153,4,0.00469208,0.00442505,0.0799942,0.0402069,0.08255
154,0,0.00228882,0.00427246,0.0667953,0.0442505,0.0770569
154,1,0.00144958,-0.000724792,0.0550842,0.0404358,0.0677109
154,2,0.00526428,0.00495911,0.0576782,0.0639343,0.0619125
154,3,0.0038147,0.0106049,0.064621,0.0820923,0.0570679
154,4,0.00141144,0.00114441,0.0561905,0.103569,0.0504684
155,0,0.0019455,0.0038147,0.0393295,0.136108,0.0540924
155,1,0.001297,0.00606537,0.0416946,0.147896,0.0675964
155,2,0.00507355,0.0062561,0.0350571,0.14183,0.0710297
155,3,0.00320435,0.00736237,0.0328064,0.123444,0.0722504
155,4,0.00480652,0.0056076,0.0382996,0.106163,0.0677109
156,0,0.000534058,0.00167847,0.0361633,0.0831985,0.0666809
156,1,-0.0128555,3.81E-05,0.0383377,0.070343,0.0646973
156,2,-0.0120926,0.00339508,0.0362778,0.0656891,0.0676727
156,3,-0.00476837,0.00331879,0.0312424,0.0579453,0.0673294
156,4,-0.000991821,0.00259399,0.0326157,0.055809,0.0642014
157,0,0.00350952,0.00549316,0.0359344,0.0648117,0.0669479
157,1,0.00896454,0.00484467,0.0415421,0.0641251,0.0738144
157,2,0.00995636,-0.0123215,0.0435638,0.0680923,0.080986
157,3,0.0144958,-0.0149536,0.0455475,0.072937,0.0783157
157,4,0.0108719,0.001297,0.051918,0.0751114,0.0789642
158,0,0.00747681,0.00244141,0.0559235,0.0745392,0.0787354
158,1,0.00328064,-0.00957489,0.0561142,0.0728989,0.0763321
158,2,0.00400543,0.00530243,0.0592041,0.0727844,0.0754166
158,3,0.000839233,0.00419617,0.0610352,0.0699615,0.0726318
158,4,-0.00514984,-0.00232697,0.0632858,0.0654602,0.0738525
159,0,-0.00354767,-0.000190735,0.0629807,0.0679398,0.0753784
159,1,-0.00324249,0.00225067,0.0675583,0.0701904,0.0772095
159,2,-0.00328064,-0.000228882,0.0698471,0.070343,0.0774384
159,3,-0.00221252,-0.0031662,0.0717926,0.0719452,0.0789261
159,4,7.63E-05,-0.00480652,0.0685883,0.0741577,0.0778198
160,0,-0.0025177,-0.00785828,0.0678253,0.0705338,0.0756836
160,1,-0.00713348,-0.00881195,0.0684357,0.0725937,0.074501
160,2,-0.00759125,-0.00732422,0.0695038,0.0709915,0.0691605
160,3,-0.00465393,-0.00343323,0.0709152,0.067482,0.071106
160,4,-0.00835419,0.00427246,0.0675964,0.0631714,0.0652313
161,0,-0.00236511,0.00919342,0.0649643,0.0598907,0.063324
161,1,-0.000801086,-0.00759125,0.0675201,0.0669479,0.0655365
161,2,0.00312805,-0.00114441,0.0671768,0.067482,0.0645828
161,3,0.00843048,0.000419617,0.0631332,0.0683975,0.0648117
161,4,0.00984192,-0.00354767,0.0593185,0.068512,0.0705719
162,0,0.00656128,-0.0062561,0.0556564,0.0716782,0.0693512
162,1,0.00564575,-0.00392914,0.0545883,0.0732422,0.0667953
162,2,0.00518799,-0.00240326,0.0543213,0.0668335,0.066452
162,3,0.00427246,-0.000114441,0.0508118,0.0720978,0.069046
162,4,0.00171661,-0.00282288,0.0505066,0.0662231,0.0736237
163,0,0.000419617,-0.000190735,0.0471115,0.0657272,0.0709915
163,1,-0.00240326,0.00259399,0.0497055,0.0683212,0.0722885
163,2,-0.000457764,0.00404358,0.0498199,0.0702286,0.0749588
163,3,0.00144958,0.00396729,0.0539398,0.071106,0.078125
163,4,-0.00175476,0.00480652,0.058403,0.068779,0.0789261
164,0,-0.00102997,0.00652313,0.0597,0.0701904,0.0748062
164,1,-0.0043869,0.00282288,0.0592804,0.0708771,0.0714111
164,2,-0.00476837,-0.000953674,0.0594711,0.0733566,0.0722122
164,3,-0.00850677,-0.00232697,0.0596619,0.0712967,0.0696182
164,4,-0.00606537,-0.00259399,0.0589752,0.0708008,0.0699615
165,0,-0.00255585,-0.00213623,0.0588989,0.0672913,0.0725174
165,1,0.00274658,0.000343323,0.0598145,0.0687408,0.0708771
165,2,0.000915527,0.00514984,0.0618744,0.0708389,0.0764847
165,3,-0.00301361,0.00480652,0.0624466,0.0764084,0.0735474
165,4,-0.00305176,0.00335693,0.0630569,0.0733185,0.072937
166,0,-0.0031662,0.000801086,0.0611115,0.0743866,0.0707245
166,1,-0.00297546,-0.000686646,0.0590515,0.0746918,0.0666046
166,2,-0.00087738,0.00202179,0.0637054,0.0748062,0.0665283
166,3,-0.000419617,0.00255585,0.0627136,0.0735474,0.0651169
166,4,0,-0.00282288,0.0592041,0.070076,0.0616074
167,0,-0.000343323,-0.00236511,0.0535965,0.0685883,0.0640869
167,1,0.00213623,0.000190735,0.0563812,0.0738907,0.0681305
167,2,0.00648499,-0.00110626,0.0557327,0.0725174,0.0704193
167,3,0.0115967,0.00232697,0.0532913,0.0706863,0.0769043
167,4,0.00888824,0.00370026,0.0553894,0.0703812,0.0831604
168,0,0.00709534,0.00377655,0.0552368,0.0710297,0.0821686
168,1,0.00461578,0.001297,0.0522995,0.0722885,0.0807571
168,2,0.00495911,0.00312805,0.0517273,0.0728226,0.0829315
168,3,0.00637054,0.0025177,0.0511932,0.072937,0.0812531
168,4,0.00675201,3.81E-05,0.0497437,0.0680923,0.079155
169,0,0.00507355,0.000839233,0.0486374,0.0675964,0.0741196
169,1,0.0037384,0.00289917,0.0546646,0.0722122,0.0826263
169,2,-0.00484467,0.00106812,0.0552368,0.0747681,0.0926208
169,3,-0.00247955,0.00171661,0.0580597,0.0795746,0.0904465
169,4,-0.00442505,-0.00171661,0.0574875,0.0792694,0.083046
170,0,-0.00385284,0.00370026,0.0596619,0.0777435,0.078392
170,1,-0.00705719,0.00431061,0.0592041,0.0740433,0.0751877
170,2,-0.00991821,0.00320435,0.0610733,0.0722122,0.0759125
170,3,-0.00965118,0.00179291,0.062294,0.0717163,0.064888
170,4,-0.00797272,-0.00370026,0.0595093,0.0708008,0.0482941
171,0,-0.00892639,-0.00495911,0.0601196,0.0698853,0.0460052
171,1,-0.00396729,-0.00534058,0.063858,0.0763702,0.0533295
171,2,0.00175476,-0.00331879,0.0644684,0.0780869,0.0518799
171,3,0.00507355,0.000267029,0.0657654,0.0796127,0.0403214
171,4,0.00293732,0.00198364,0.0638962,0.0754166,0.0406647
172,0,0.0037384,0.00038147,0.0597,0.0717163,0.0460052
172,1,0.00774384,0.000610352,0.062294,0.0687027,0.0354004
172,2,0.00694275,-0.00354767,0.0626373,0.0652313,0.0487518
172,3,0.0069809,-0.0031662,0.0605774,0.0642776,0.103798
172,4,0.0044632,-0.00411987,0.0548553,0.0637817,0.138474
173,0,0.00450134,-0.00370026,0.0568008,0.0654602,0.1511
173,1,0.00469208,0.00125885,0.0566483,0.0642395,0.151825
173,2,0.00278473,-0.00175476,0.0559998,0.0638962,0.151443
173,3,0.00370026,-0.00171661,0.0547028,0.0642395,0.136604
173,4,0.000190735,0.00255585,0.0531387,0.0624847,0.104027
174,0,0.00404358,0.00270844,0.0506973,0.0586319,0.0801849
174,1,-0.000762939,0.000419617,0.0487137,0.0544739,-0.0443649
174,2,-0.00328064,-0.00167847,0.0497818,0.0498962,-0.13855
174,3,-0.0019455,-0.00205994,0.0511932,0.0570297,-0.115585
174,4,-0.00854492,0.000762939,0.0568008,0.0624847,-0.0413895
175,0,-0.00679016,-0.00335693,0.0637436,0.0717926,0.0744629
175,1,-0.00469208,0.00110626,0.068512,0.0811005,0.148163
175,2,-0.00190735,0.00377655,0.067482,0.0868988,0.236282
175,3,-0.00160217,0.00255585,0.066452,0.0866318,0.122452
175,4,-0.00114441,0.00499725,0.0675583,0.0831985,0.0637054
176,0,-0.000457764,0.00141144,0.0647354,0.0787354,0.0203705
176,1,-3.81E-05,-0.00267029,0.0608063,0.071907,0.0214005
176,2,-0.00347137,0.0012207,0.0563812,0.0683975,0.0403214
176,3,0.000648499,-3.81E-05,0.0585938,0.0683212,0.08358
176,4,-0.00164032,-0.00358582,0.0519943,0.0651169,0.0966644
177,0,-0.0044632,-0.00289917,0.0476074,0.0649261,0.111198
177,1,-0.0019455,0.00038147,0.0470352,0.0672913,0.13401
177,2,0.00160217,0.00530243,0.0473022,0.0694275,0.158081
177,3,0.00118256,0.00774384,0.0552368,0.0719452,0.112152
177,4,0.00366211,0.00400543,0.0535583,0.0702286,0.0397873
178,0,0.00492096,0.00724792,0.0537872,0.0668716,0.0635529
178,1,0.00419617,0.00495911,0.0513077,0.0683594,0.116196
178,2,0.00453949,0.00286102,0.0496674,0.0706482,0.155182
178,3,0.00614166,3.81E-05,0.0523758,0.072937,0.166321
178,4,0.000572205,-0.00202179,0.0507736,0.0667191,0.138245
179,0,0.00343323,-0.00389099,0.0535202,0.0661469,0.0219727
179,1,0.00267029,-0.000724792,0.0568771,0.072403,0.000915527
179,2,0.00354767,0.000305176,0.0624084,0.0762558,0.0545883
179,3,0.00629425,0.00114441,0.0654221,0.078392,0.060997
179,4,0.00629425,-0.000534058,0.0664902,0.0772095,0.0505829
180,0,0.00614166,0.000267029,0.0667572,0.0777435,0.0532913
180,1,0.00640869,-0.00118256,0.0674057,0.0771332,0.0425339
180,2,0.00347137,-0.00427246,0.0653458,0.0766373,0.0293732
180,3,0.00156403,-0.00377655,0.0694275,0.0722122,0.0276184
180,4,-0.00114441,-0.00324249,0.0598907,0.066185,0.031395
181,0,-0.0044632,-0.00534058,0.0546646,0.0650787,0.0435257
181,1,-0.00148773,-0.00225067,0.0576401,0.0709152,0.0745773
181,2,0.000610352,-0.000839233,0.0591278,0.07164,0.116692
181,3,-0.00267029,0.00255585,0.0586319,0.0709152,0.162392
181,4,-0.0075531,-0.000190735,0.0644684,0.0730133,0.195465
182,0,-0.00411987,-0.00118256,0.0603485,0.0719452,0.182495
182,1,-0.00343323,0.00141144,0.0588989,0.0680923,0.0946808
182,2,-0.00102997,0.00106812,0.051918,0.0654221,0.0440598
182,3,-0.00179291,-0.00305176,0.0485611,0.0629807,0.0452042
182,4,-0.00518799,-0.000152588,0.0461578,0.0597763,0.0429535
183,0,-0.00534058,-0.00137329,0.0501633,0.063858,-0.0101852
183,1,-0.00553131,-0.00274658,0.0496674,0.0656128,-0.116959
183,2,-0.00324249,0.0019455,0.053978,0.0639343,-0.0705719
183,3,-0.00133514,0.00102997,0.0560379,0.0723267,-0.073967
183,4,-0.000648499,0.000267029,0.0628662,0.0783157,-0.109673
184,0,0.00392914,0.000839233,0.0645828,0.0774384,-0.205765
184,1,0.00110626,0.00118256,0.0666428,0.0865173,-0.0801849
184,2,0.000572205,-0.000457764,0.0683212,0.0888824,0.0563812
184,3,-0.0050354,0.000572205,0.0693893,0.0814819,0.136948
184,4,-0.00362396,-0.0019455,0.0633621,0.0711823,0.17292
185,0,-0.00267029,-0.00270844,0.0580978,0.0651932,0.184631
185,1,0,0.000190735,0.0584793,0.0697708,0.213585
185,2,0.0063324,0.00038147,0.058136,0.0728989,0.22274
185,3,0.00358582,0.00518799,0.056839,0.0725174,0.255814
185,4,0.00267029,0.00457764,0.0547409,0.0716782,0.265503
186,0,-0.000267029,0.00522614,0.0576782,0.0722885,0.262108
186,1,0,0.00213623,0.056076,0.0759125,0.227585
186,2,0.0044632,0.00213623,0.0563812,0.0734329,0.219345
186,3,0.00362396,0.00423431,0.0523758,0.0686646,0.203133
186,4,-0.000228882,7.63E-05,0.0412369,0.0592804,0.151176
187,0,-0.00431061,-0.000724792,0.0355148,0.0511169,0.100479
187,1,-0.00087738,-0.00152588,0.0466919,0.0580597,-0.00247955
187,2,-0.00141144,0.00114441,0.052948,0.0601578,-0.0977325
187,3,-0.00137329,0.000610352,0.0534439,0.0648499,-0.0909424
187,4,-0.000915527,-0.00106812,0.0611496,0.0725174,0.0443268
188,0,0.00473022,-0.00331879,0.0655365,0.0777054,0.0380707
188,1,0.00335693,0.00148773,0.0682831,0.0759888,-0.0692368
188,2,0.00125885,0.00190735,0.064888,0.075531,-0.147362
188,3,0.000953674,-0.000724792,0.0648499,0.0775146,-0.0702286
188,4,0.00171661,-0.000648499,0.0634384,0.0736618,0.0100327
189,0,0.000991821,-0.001297,0.0669479,0.0768661,0.112495
189,1,0.00453949,-0.00221252,0.0640869,0.0799561,0.118332
189,2,0.0056076,-0.00232697,0.0691223,0.0796509,0.0845337
189,3,0.00591278,0.000724792,0.0686264,0.0837708,0.0873947
189,4,0.00270844,0,0.0639343,0.0778961,0.0880051
190,0,-0.000343323,0.00125885,0.0618362,0.069046,0.104103
190,1,-0.00228882,0.000915527,0.0540161,0.0667191,0.107002
190,2,-0.00400543,0.000572205,0.0538254,0.0678253,0.130997
190,3,0.000915527,0.00087738,0.0524521,0.0661087,0.143204
190,4,-0.00541687,-0.000343323,0.0477982,0.0626755,0.183678
191,0,-0.00408173,-0.00274658,0.0474548,0.0653076,0.155945
191,1,0.0012207,-0.000343323,0.0471497,0.0697327,0.11116
191,2,0.00480652,-0.000648499,0.0450516,0.0651932,0.0514221
191,3,0.00892639,0.0030899,0.0420761,0.0638199,-0.00804901
191,4,0.00343323,3.81E-05,0.0481415,0.0663757,-0.0617218
192,0,0.00461578,0.000686646,0.0497437,0.0671005,0.0174332
192,1,0.00408173,0.00164032,0.0589371,0.0692368,0.00976563
192,2,0.00297546,0.000724792,0.0640488,0.0735092,0.0218201
192,3,-0.000953674,0.0038147,0.0695038,0.0717163,0.0423431
192,4,-0.00423431,-0.00179291,0.0660706,0.0734329,0.0779724
193,0,-0.00522614,-0.000267029,0.0694656,0.075264,0.145645
193,1,-0.00175476,-0.000190735,0.0698853,0.0759888,0.112495
193,2,0.000114441,0.00411987,0.0679779,0.0760651,0.0198364
193,3,0.00164032,0.00225067,0.065155,0.0744247,0.0775528
193,4,0.000495911,0.0050354,0.057869,0.0658035,0.0717545
194,0,-0.00167847,0.00362396,0.0509644,0.0629044,-0.00785828
194,1,-7.63E-05,0.00106812,0.0572968,0.0639725,-0.0390625
194,2,-0.00358582,0.00190735,0.0556183,0.0640869,-0.0732422
194,3,-0.000801086,0.00286102,0.0582123,0.0628281,-0.00427246
194,4,-0.00476837,0.00167847,0.0553131,0.0589752,0.0869751
195,0,-0.00640869,-0.00110626,0.055275,0.0620651,0.149078
195,1,-0.000534058,-0.000572205,0.0663376,0.0795746,0.190544
195,2,0.00137329,-0.001297,0.0678635,0.0829697,0.238342
195,3,0.00263214,-0.0043869,0.0685883,0.0871658,0.209618
195,4,0.00335693,-0.00541687,0.0661087,0.084877,0.211945
196,0,0.000610352,-0.00892639,0.0614929,0.0793457,0.226212
196,1,0.000495911,-0.00923157,0.0557709,0.0753021,0.222015
196,2,0.000114441,-0.00736237,0.0511551,0.0739288,0.133629
196,3,0.000686646,-0.00553131,0.052681,0.0706482,-0.0345612
196,4,-0.0019455,-0.00343323,0.0514221,0.0675583,-0.113068
197,0,-0.00297546,-0.00312805,0.0500107,0.0606537,0.00392914
197,1,0.00125885,-0.00171661,0.0532532,0.0646973,0.0926971
197,2,0.000839233,0.000534058,0.0479126,0.0629425,0.0647354
197,3,0.000267029,0.00553131,0.0505447,0.067482,0.0082016
197,4,0.00164032,0.0094986,0.0486755,0.0693512,0.0223541
198,0,0.00270844,0.0123596,0.0511932,0.0670624,0.055275
198,1,0.00270844,0.00537872,0.0530243,0.0660324,-0.00682831
198,2,0.00556946,0.00572205,0.059433,0.0712204,-0.0592422
198,3,0.00549316,0.000457764,0.0615692,0.0728226,0.0177765
198,4,0.00320435,0.000610352,0.0608826,0.0706482,-0.0248718
199,0,0.00038147,-0.0019455,0.0590134,0.070343,0.0807953
199,1,0.00377655,0.00778198,0.0669861,0.0761032,0.237274
199,2,0.000801086,0.00923157,0.0649643,0.0798798,0.228386
199,3,0.00331879,-0.00385284,0.0662231,0.0815201,0.219231
199,4,0.00106812,-0.00728607,0.0648499,0.078125,0.164337
200,0,0.000953674,-0.0125504,0.0603104,0.0732422,0.0481033
200,1,3.81E-05,-0.00366211,0.0572205,0.0680923,-0.0831223
200,2,0.00125885,-0.000190735,0.0494385,0.0583649,-0.164604
200,3,0.00087738,0.00564575,0.0511551,0.0577545,-0.0427246
200,4,0.000534058,0.000495911,0.0515747,0.0578308,0.0688553
201,0,-0.00461578,-0.0069809,0.0575256,0.0664139,-0.0564957
201,1,-0.00324249,-0.00110626,0.0640106,0.0747681,0.0426865
201,2,-0.0019455,-0.000267029,0.0670242,0.0798035,0.0476837
201,3,-0.000648499,0.00396729,0.0699234,0.0879669,0.120735
201,4,-0.000724792,0.00667572,0.0693512,0.086174,0.206451
202,0,-7.63E-05,0.0019455,0.0638199,0.0731659,0.177307
202,1,0.00217438,-0.00156403,0.0601959,0.0685501,0.194931
202,2,0.000991821,0.00419617,0.0553131,0.0666428,0.219574
202,3,-0.000839233,0.00919342,0.0447845,0.0643539,0.205345
202,4,-0.00572205,0.00759125,0.0343704,0.0570297,0.222893
203,0,-0.00576019,0.0295639,0.0329971,0.054245,0.144348
203,1,-0.00198364,0.0231552,0.0398254,0.056076,0.0601959
203,2,-0.0056839,-0.00209808,0.0449371,0.0651169,-0.162354
203,3,-0.00720978,-0.0158691,0.057869,0.0748825,-0.242462
203,4,-0.0038147,0.00278473,0.0672913,0.0821686,-0.00110626
204,0,-0.00255585,0.0295639,0.0700378,0.092392,0.158195
204,1,-0.00286102,0.00267029,0.0706482,0.0910187,0.269089
204,2,-0.00556946,-0.0237656,0.0672531,0.0861359,0.253448
204,3,-0.0030899,-0.0146103,0.0654984,0.0830078,0.196419
204,4,-0.00686646,-0.0135803,0.0579453,0.0691986,0.137291
205,0,-0.00362396,-0.0182343,0.0447845,0.0536728,0.0860596
205,1,0.00350952,-0.00171661,0.045166,0.0523758,0.0899506
205,2,0.00217438,-0.00320435,0.0423431,0.0476074,-0.0548553
205,3,0.00324249,-0.0044632,0.0418091,0.0490952,-0.28595
205,4,0.00476837,-0.00324249,0.0518036,0.0627136,-0.543327
206,0,0.00671387,-0.0122452,0.0627136,0.0744629,-0.235634
206,1,0.00930786,-0.011673,0.0736618,0.086937,-0.0358582
206,2,0.00808716,-0.0121307,0.0822449,0.092392,0.095253
206,3,0.00686646,-0.0179672,0.0858688,0.094223,0.221176
206,4,0.00282288,-0.00827789,0.0760651,0.0831985,0.249329
207,0,0.00267029,0.000648499,0.0724792,0.0758743,0.220184
207,1,0.00759125,0.00343323,0.0716019,0.0744629,0.228348
207,2,0.00797272,0.00324249,0.0683594,0.0709534,0.229568
207,3,0.00804901,0.00324249,0.0646973,0.0686646,0.199585
207,4,0.00598907,0.00240326,0.0553513,0.0638199,0.185547
208,0,0.00587463,0.00213623,0.0481033,0.0602341,0.177078
208,1,0.0037384,0.00305176,0.0458145,0.0587463,0.157585
208,2,-0.000762939,0.00499725,0.0448608,0.0654221,0.155144
208,3,-0.000152588,0.00530243,0.045929,0.0675583,0.156479
208,4,-0.00465393,0.00247955,0.0442505,0.0605011,0.12928
209,0,-0.00553131,0.0056839,0.0418472,0.0613403,0.105286
209,1,-0.00377655,0.0100708,0.0437164,0.0645828,0.0929642
209,2,-0.00465393,0.0114059,0.0477982,0.0655365,0.0705719
209,3,-0.00102997,0.0114822,0.0502396,0.0704575,0.0835037
209,4,-0.00289917,0.0137711,0.0511169,0.0655746,0.0484848
210,0,-0.00358582,0.0154114,0.0569153,0.0687027,-0.00953674
210,1,-0.00156403,0.0113297,0.0633621,0.071106,-0.0428391
210,2,-0.00293732,0.00736237,0.0630569,0.0765991,-0.0545502
210,3,-0.00221252,0.00419617,0.063324,0.0737,-0.0654602
210,4,-0.00205994,-0.00236511,0.057373,0.0750732,-0.0672531
211,0,-0.00267029,-0.00709534,0.0545502,0.072403,-0.0466156
211,1,0.000152588,-0.0025177,0.0514984,0.0799942,-0.0253296
211,2,0.00175476,0.000495911,0.0513458,0.0801086,0.0317383
211,3,0.00415802,0.000648499,0.0548172,0.0748444,0.0637436
211,4,0.00301361,0.0012207,0.0535202,0.0704193,0.0934601
212,0,0.00228882,0.000534058,0.0574875,0.0694656,0.103188
212,1,-0.00038147,-0.000991821,0.0647354,0.075798,0.0517273
212,2,0.0030899,-0.0075531,0.0738907,0.087471,0.149689
212,3,0.00160217,-0.00881195,0.0773239,0.0931931,0.208206
212,4,-0.00362396,-0.00682831,0.0736618,0.0852203,0.220032
213,0,-0.00236511,-0.00789642,0.0683594,0.0733185,0.159149
213,1,-0.00087738,-0.00919342,0.0640869,0.0678635,0.0852203
213,2,-0.00202179,-0.00900269,0.0642776,0.0670242,0.0277328
213,3,-0.000648499,-0.00465393,0.0602341,0.0618362,-0.0668716
213,4,0.0030899,-0.0063324,0.0531006,0.058403,-0.042572
214,0,-0.00183105,-0.00556946,0.0475311,0.0566864,0.066185
214,1,-0.00240326,-0.00377655,0.0468826,0.0604248,0.171967
214,2,0.000114441,-0.00278473,0.0409698,0.0589752,0.196877
214,3,-0.00160217,0.00164032,0.0378036,0.0577545,0.0581741
214,4,-0.000457764,-0.0025177,0.0452423,0.0554276,-0.0289536
215,0,-0.00354767,-0.00556946,0.0623703,0.0693512,-0.15995
215,1,-0.00255585,0.00553131,0.0720215,0.0815964,-0.140915
215,2,-0.000839233,0.00720978,0.0730133,0.0872421,-0.0504684
215,3,0.000305176,0.01091,0.0783539,0.0920105,0.0561905
215,4,0.00164032,0.00938416,0.0746536,0.0849915,0.222015
216,0,0.00133514,0.00473022,0.0717926,0.0799561,0.199623
216,1,0.000801086,0.00644684,0.0680923,0.0751114,0.11055
216,2,-0.000228882,0.00350952,0.0572968,0.0698853,0.080986
216,3,0.0018692,0.000610352,0.0531006,0.0640488,0.169754
216,4,0.000839233,-0.00133514,0.0483322,0.0648499,0.229454
217,0,-0.00217438,-0.0031662,0.0479889,0.0656128,0.182419
217,1,0.000495911,-0.000190735,0.0509262,0.0688553,0.128899
217,2,-0.00125885,0.00236511,0.0527191,0.0681305,0.122032
217,3,-3.81E-05,0.00110626,0.0538635,0.0641632,0.147858
217,4,0.001297,0.00476837,0.0508118,0.0605392,0.138664
218,0,-0.000839233,-0.00175476,0.0505447,0.060997,0.112152
218,1,-0.000686646,-0.013504,0.0525284,0.0591278,0.0988007
218,2,0.00396729,-0.018692,0.0526047,0.0598145,0.0821304
218,3,0.00499725,-0.00125885,0.053215,0.0675201,0.0709915
218,4,0.00156403,0.00240326,0.0505066,0.0654984,0.0623322
219,0,0.00354767,0.00366211,0.0475311,0.065918,0.0476837
219,1,0.00541687,0.0107193,0.0535202,0.0711823,0.0406265
219,2,0.00164032,0.0161743,0.05867,0.0751495,0.034523
219,3,0.00102997,0.00988007,0.0619507,0.0788879,0.0328827
219,4,0.00282288,0.0102234,0.0637054,0.0779724,0.029068
220,0,0.00713348,0.00511169,0.0652313,0.0772095,0.0259781
220,1,0.00713348,0.00789642,0.0655365,0.0758362,0.0244141
220,2,0.00133514,0.00305176,0.0688553,0.0744629,0.0231171
220,3,-0.00160217,-0.000572205,0.0662994,0.077095,0.0236893
220,4,-0.00366211,-0.00431061,0.0592804,0.073967,0.0252151
221,0,-0.0037384,-0.00682831,0.0582504,0.0710297,0.0308228
221,1,-0.001297,-0.00469208,0.0564957,0.0720215,0.036087
221,2,-0.000724792,-0.00354767,0.0597763,0.0761795,0.0448227
221,3,0.00156403,0.00171661,0.0630569,0.0778198,0.0465012
221,4,-0.000228882,0.00663757,0.0574493,0.0767136,0.050621
222,0,0.000839233,-0.00156403,0.0572205,0.0746918,0.0550461
222,1,0.00038147,-0.00854492,0.0558472,0.0737762,0.0629044
222,2,-0.00259399,-0.0117111,0.0554657,0.0718307,0.0709152
222,3,0.000686646,-0.00835419,0.0554276,0.0716019,0.0762177
222,4,-0.000991821,-0.0126266,0.0522232,0.0676346,0.076561
223,0,-0.00400543,-0.0123596,0.0452423,0.0637054,0.079155
223,1,0.000267029,-0.00415802,0.0489044,0.0652695,0.0852966
223,2,0.00404358,0.0269699,0.0492477,0.0680542,0.0918961
223,3,0.00228882,0.0377655,0.0539398,0.0729752,0.101242
223,4,-0.00286102,-0.0069046,0.0541687,0.0736618,0.0977707
224,0,-0.00141144,-0.00305176,0.051384,0.0729752,0.0928497
224,1,-0.000419617,-0.00213623,0.0520706,0.0733185,0.0870895
224,2,0.000686646,-0.0173569,0.0519943,0.0700378,0.083313
224,3,0.00331879,-0.00999451,0.0537109,0.0704575,0.0771332
224,4,-0.000534058,0.00370026,0.0508499,0.0653839,0.0786209
225,0,-0.00202179,-0.037117,0.0532913,0.0621033,0.0758743
225,1,-0.00686646,-0.0388718,0.0582504,0.0633621,0.0767517
225,2,-0.000915527,-0.0149918,0.0606537,0.0689697,0.0786591
225,3,0.00377655,0.0170517,0.0452423,0.0718307,0.082016
225,4,0.00278473,0.0179291,0.0406265,0.0721359,0.0829697
226,0,0.00232697,0.0226593,0.0822449,0.0722885,0.0812149
226,1,0.0025177,0.0340652,0.0783539,0.0723648,0.0812912
226,2,-0.00038147,0.0114059,0.0680542,0.0713348,0.082016
226,3,0.00087738,0.00553131,0.0628662,0.0727844,0.0785828
226,4,-3.81E-05,0.0117111,0.0537109,0.0708008,0.0731659
227,0,-0.00427246,0.0168991,0.0407028,0.0672913,0.0669098
227,1,-0.00484467,0.0210571,0.0514984,0.0701141,0.0699997
227,2,-0.00392914,0.00221252,0.0794601,0.0741959,0.0725555
227,3,-0.00141144,0.0121689,0.075798,0.0754166,0.0746536
227,4,-0.001297,0.00724792,0.0714111,0.0762558,0.0701141
228,0,0.000305176,-0.0222778,0.0688171,0.0736618,0.0652695
228,1,-0.00114441,-0.0272751,0.0671768,0.0715637,0.0658417
228,2,0.00328064,-0.00804901,0.067215,0.0715256,0.0650406
228,3,0.00350952,-0.00419617,0.0666046,0.0726318,0.0645447
228,4,0.00148773,-0.0117874,0.062561,0.0667953,0.0660324
229,0,0.00038147,0.0321198,0.0583649,0.0657654,0.0592422
229,1,0.00156403,0.00965118,0.0571823,0.0680923,0.0663757
229,2,0.00675201,-0.0179672,0.0593948,0.0740051,0.0728989
229,3,0.00656128,-0.0150299,0.0604248,0.0776672,0.0714111
229,4,0.00450134,-0.0225067,0.0606918,0.0747681,0.069313
230,0,0.00961304,-0.00995636,0.0629807,0.0697708,0.0710297
230,1,0.00732422,0.00289917,0.0650787,0.0682831,0.0695801
230,2,0.00347137,0.0157547,0.0807571,0.067749,0.0731277
230,3,0.00209808,0.00259399,0.0840759,0.0637054,0.0772095
230,4,0.000610352,-0.00656128,0.0962067,0.0600815,0.0720596
231,0,-0.00705719,-0.0101852,0.0670242,0.0614929,0.0726318
231,1,-0.00923157,-0.0226212,0.0644684,0.0624084,0.0690842
231,2,-0.00495911,-0.00812531,0.0634766,0.063858,0.0717163
231,3,-0.00106812,0.0031662,-0.013237,0.0709534,0.085144
231,4,-0.00549316,0.0268173,-0.00610352,0.0764465,0.0920105
232,0,0.000267029,0.0124741,-0.0038147,0.0776672,0.0772095
232,1,-0.00171661,-0.0112534,0.0056076,0.0787735,0.0627136
232,2,0.00152588,-0.0290298,0.0185013,0.0811768,0.0553513
232,3,0.00488281,-0.00682831,0.0504684,0.0799561,0.0705719
232,4,-3.81E-05,0.0857544,0.0811386,0.0762558,0.0785446
233,0,-0.00644684,0.0428391,0.0806808,0.0688553,0.062561
233,1,0,-0.0168228,0.101509,0.0701141,0.0623322
233,2,0.000839233,-0.038414,0.098381,0.0691986,0.0643539
233,3,0.000572205,-0.0424957,0.0408173,0.0550461,0.0670624
233,4,0.00488281,-0.0365829,0.0447464,0.0546646,0.0628662
234,0,0.0019455,-0.0274658,0.0993729,0.0619888,0.0640106
234,1,0.00305176,0.0365829,0.0640869,0.0670242,0.0660324
234,2,0.00240326,0.0667953,0.0712585,0.0759888,0.0712204
234,3,-0.000228882,0.0582123,0.0799942,0.084343,0.0758362
234,4,-0.00289917,0.0310135,0.0118256,0.0836945,0.0725174
235,0,-0.00247955,-0.0373459,-0.0294876,0.082016,0.0723648
235,1,-0.00137329,-0.036087,0.0267029,0.0923157,0.0780869
235,2,0.00473022,-0.00907898,0.0577545,0.0878143,0.0820923
235,3,0.00434875,0.0386429,0.0884247,0.0730896,0.087204
235,4,0.00236511,0.0275421,0.101204,0.0671005,0.0870132
236,0,0.000305176,-0.0019455,0.0993347,0.0596619,0.0827026
236,1,0.000839233,0.0177002,0.080452,0.0523376,0.0824738
236,2,-0.00270844,0.0182724,0.0785828,0.0573349,0.077095
236,3,-0.000991821,-0.0128555,0.0723648,0.0526047,0.0674438
236,4,-0.00671387,-0.0385284,0.0141907,0.0391388,0.056839
237,0,-0.00934601,-0.0113678,0.00530243,0.0486374,0.0623322
237,1,-0.00205994,-0.0359344,0.0404358,0.0712967,0.0701523
237,2,-3.81E-05,-0.0671005,0.0844193,0.096283,0.0722885
237,3,0.00102997,-0.0489044,0.127563,0.115166,0.0771332
237,4,0.00225067,-0.00770569,0.117035,0.0894547,0.0792694
238,0,0.00370026,0.0352478,0.1194,0.101471,0.0749969
238,1,0.00873566,0.0164032,0.109558,0.075264,0.0774384
238,2,0.00610352,0.0481033,0.0721741,0.0619507,0.0740051
238,3,0.00164032,0.0117493,0.0632477,0.0574112,0.0780106
238,4,0.000801086,0.0192261,0.0494766,0.0676346,0.07164
239,0,-0.0019455,0.00938416,0.0618744,0.0640488,0.0637817
239,1,-0.00267029,-0.0180817,0.0906372,0.0876999,0.0617218
239,2,0.00221252,-0.0396729,-0.0430679,0.0951385,0.0541687
239,3,0,-0.0255203,-0.0781631,0.100517,0.0580215
239,4,-0.00102997,0.00118256,-0.0144577,0.0738144,0.0666046
240,0,0.00240326,-0.0241089,-0.0476074,0.0505447,0.0630569
240,1,0.00167847,-0.0218582,-0.000457764,0.0365067,0.0693893
240,2,-0.001297,-0.0235748,0.0211716,0.0504303,0.0788498
240,3,-0.000991821,-0.0263596,0.0138092,0.0626373,0.0808334
240,4,-0.00350952,-0.0094986,0.0567627,0.0804138,0.0844955
241,0,-0.00358582,0.024147,0.097084,0.0437927,0.0812149
241,1,0.000610352,0.0444031,0.0858307,0.0391388,0.0777817
241,2,0.00480652,0.0406265,0.0636292,0.0629425,0.0642395
241,3,0.00576019,0.0682068,0.079155,0.0922394,0.0630951
241,4,0.0038147,0.0317001,0.0824356,0.0679398,0.0722122
242,0,0.00423431,0.00904083,0.0522232,0.0602722,0.0714111
242,1,0.0025177,0.00301361,0.103378,0.0568771,0.0737762
242,2,0.000495911,0.00457764,0.103912,0.0477219,0.071106
242,3,-0.000267029,-0.000267029,0.0567627,0.0504684,0.0683212
242,4,0.00125885,-0.00530243,0.116386,0.0524139,0.0694275
243,0,-0.00514984,-0.0107193,0.159416,0.0442886,0.072403
243,1,-0.00389099,-0.01091,-0.00846863,0.0552368,0.0749588
243,2,-3.81E-05,-0.0109863,-0.0289917,0.0746918,0.0737381
243,3,0.000419617,-0.0188446,0.106277,0.0821304,0.0662994
243,4,0.00144958,-0.0137329,0.112419,0.1054,0.0541306
244,0,0.00286102,-0.0144577,0.106583,0.133362,0.0644684
244,1,-0.00114441,-0.0139236,0.110855,0.12291,0.0765991
244,2,-0.00312805,0.00263214,0.120659,0.100136,0.0834274
244,3,-0.00198364,0.00152588,0.0882339,0.0938797,0.0876617
244,4,0.000686646,0.00114441,0.0676346,0.0851059,0.0871658
245,0,-0.0038147,0.00442505,0.0741959,0.0781631,0.0764465
245,1,-0.00400543,0.00629425,0.0910187,0.0773621,0.0764465
245,2,-0.00450134,0.0252151,0.1054,0.0422668,0.0679398
245,3,-0.00087738,0.00988007,0.0991821,0.0476837,0.0631332
245,4,0.000228882,0.00217438,-0.0166702,0.069313,0.058136
246,0,0.00190735,0.0119019,-0.0088501,0.113373,0.0616837
246,1,0.00843048,0.0392151,0.024147,0.116081,0.0571442
246,2,0.00644684,0.0483704,-0.055275,0.0547028,0.0627899
246,3,0.00213623,-0.00537872,-0.0490189,0.0167465,0.0741959
246,4,0.00114441,-0.00934601,-0.00553131,0.0260925,0.0798416
247,0,0.00190735,-0.0150681,-0.0130844,0.0130081,0.0758743
247,1,0.00320435,0.0271606,0.00812531,0.0532532,0.074501
247,2,0.00617981,0.013237,0.0286484,0.0432587,0.0705719
247,3,0.00717163,-0.0117111,0.0459671,0.00217438,0.0685501
247,4,0.00411987,-0.0131226,0.0481796,0.0336838,0.0789642
248,0,-0.000228882,-0.0206757,0.124321,0.0761795,0.0840759
248,1,0.000228882,-0.0274658,0.180893,0.150566,0.0899506
248,2,0.00205994,-0.00846863,0.0955963,0.191917,0.0893402
248,3,-0.00247955,-0.00598907,0.188255,0.105972,0.0753403
248,4,-0.00198364,-0.00148773,0.12619,0.098877,0.0802612
249,0,-0.00621796,-0.00171661,-0.0701141,0.0996399,0.075798
249,1,-0.00305176,-0.0227356,0.0289917,0.0822067,0.0844193
249,2,0.00038147,-0.0471878,0.0705338,0.0428009,0.0764465
249,3,-0.00164032,-0.0442505,0.115128,0.0578308,0.0642014
249,4,0.0012207,-0.0228119,0.214806,0.0793076,0.0615311
250,0,0.00286102,-0.00362396,0.0659561,0.0959015,0.0541687
250,1,0.00141144,0.00328064,-0.118523,0.0284576,0.0540543
250,2,0.000839233,-0.00110626,-0.159569,0.0605011,0.0652695
250,3,-3.81E-05,-0.00640869,-0.0812531,0.142365,0.0724792
250,4,0.00137329,-0.0125122,-0.0825119,0.171738,0.071907
251,0,0.00038147,-0.0156403,-0.0511551,0.0878143,0.066452
251,1,0.00328064,-0.0101471,0.0690842,0.031662,0.0667572
251,2,0.00339508,-0.000457764,0.157204,-0.0217819,0.0768661
251,3,0.00774384,0.0279617,0.198059,-0.0348663,0.0806046
251,4,0.0104904,0.0435257,0.124741,-0.0180817,0.0877762
252,0,0.00400543,0.0439072,0.143471,0.0347519,0.0896835
252,1,-0.00240326,0.0562668,0.194168,0.0382233,0.0854874
252,2,-0.00629425,0.0617218,0.178833,-0.0165176,0.0753784
252,3,-0.00675201,0.0229263,0.147591,0.0787735,0.056839
252,4,-0.00766754,0.00408173,0.0636292,0.0497055,0.0521088
253,0,-0.0112915,-0.00457764,-0.0606918,0.146599,0.0699615
253,1,-0.00759125,-0.0044632,0.0271988,0.165939,0.0814056
253,2,-0.00823975,-0.00675201,0.137405,0.0983047,0.072403
253,3,-0.00450134,-0.00457764,0.112801,0.0851822,0.0631714
253,4,-0.0038147,-0.00862122,0.18158,0.0548172,0.0468826
254,0,-0.000534058,-0.0115585,0.143471,0.149307,0.0417328
254,1,0.00343323,-0.0130081,0.063858,0.03685,0.0600815
254,2,-0.00415802,-0.0125122,0.0897217,0.0733948,0.0584412
254,3,-0.00583649,-0.00709534,-0.0043869,0.155144,0.0791931
254,4,-0.00598907,-0.00846863,-0.211601,0.099144,0.0812912
255,0,-0.00576019,-0.0129318,-0.112419,0.038147,0.083313
255,1,-0.00137329,-0.00797272,0.031929,0.0278091,0.0741577
255,2,0.000228882,-0.000114441,0.113182,-0.0155258,0.0618744
255,3,0.000839233,0.0149155,0.204048,0.0621414,0.0593948
255,4,0.00762939,0.00705719,0.409622,0.113831,0.0626373
256,0,0.0144577,0.00762939,0.131035,0.106201,0.0727463
256,1,0.0182343,0.0175858,-0.0468063,0.0961304,0.0758743
256,2,0.0102234,0.0299454,-0.0656509,0.014801,0.0785446
256,3,0.00278473,0.00793457,-0.182076,-0.0286102,0.0794601
256,4,-0.00469208,-0.00823975,-0.417557,-0.0165558,0.0879669
257,0,-0.00770569,-0.0356674,-0.19146,0.136757,0.0879669
257,1,-0.0025177,-0.0346756,0.0304794,0.242424,0.088501
257,2,0.00434875,-0.0182343,0.114822,0.207443,0.0869751
257,3,0.0150299,-0.00499725,0.181351,0.0597382,0.0735474
257,4,0.0107574,-0.0157547,0.052681,-0.0470734,0.0824356
258,0,0.000953674,-0.0139999,0.0511551,0.0773621,0.0778961
258,1,-0.00514984,-0.0123978,0.00968933,0.168037,0.0745773
258,2,-0.00743866,-0.00484467,0.0315857,0.12146,0.0665283
258,3,-0.00541687,0.000152588,0.135727,0.244598,0.0495911
258,4,0.0018692,-0.000648499,0.193558,0.0857162,0.0372696
259,0,0.00732422,0.0167084,0.212479,-0.0450134,0.0513458
259,1,-0.000801086,0.0133133,0.148048,-0.0537491,0.0799942
259,2,-0.00946045,0.0025177,0.17128,-0.100708,0.0829315
259,3,-0.00938416,0.00263214,0.178452,-0.043602,0.0626373
259,4,7.63E-05,0.00816345,0.163345,0.0636673,0.0626755
260,0,0.0118256,0.00164032,0.154305,0.0827789,0.0643539
260,1,0.0173187,0.00545502,0.116081,0.103683,0.073967
260,2,0.00442505,0.00408173,0.0677109,0.105743,0.0882721
260,3,-0.00823975,0.00720978,0.00816345,0.0738525,0.0899506
260,4,-0.0191879,-0.000839233,0.0550461,0.106506,0.088768
261,0,-0.0185394,-0.00286102,0.063591,0.109329,0.0888062
261,1,-0.00797272,0.00717163,-0.0366211,0.0894547,0.0929642
261,2,0.00232697,0.0101852,0.0738144,0.00629425,0.0928497
261,3,0.00965118,0.0140762,0.0996017,0.00694275,0.0832748
261,4,0.00564575,0.0149918,0.0670242,0.0640869,0.0744629
262,0,-0.000648499,0.00247955,0.0340271,0.0838089,0.0699615
262,1,0.00396729,0.00576019,0.0584793,-0.0674438,0.0525665
262,2,0.0102234,0.00858307,0.0841904,-0.139732,0.0492096
262,3,0.0235367,-0.00102997,0.069046,0.00236511,0.0678635
262,4,0.0357437,-0.0248337,0.0392914,0.232162,0.0691605
263,0,0.0203323,-0.0203323,0.0382996,0.317154,0.0633621
263,1,0.00404358,-0.0114441,0.0101471,0.219193,0.0628662
263,2,-0.00427246,-0.00328064,0.0854492,0.273399,0.0762177
263,3,-0.000190735,0.0183868,0.0491714,0.318069,0.0650787
263,4,0.00907898,0.0157547,0.00545502,0.231895,0.0806427
264,0,-0.0038147,0.0125504,0.0189972,0.128059,0.107651
264,1,-0.0295639,-0.00205994,-0.0284195,0.0234222,0.10685
264,2,-0.0460815,-0.00827789,0.0173569,-0.155792,0.0893784
264,3,-0.0458908,-0.0103378,0.0824738,-0.246048,0.0656891
264,4,-0.0181961,-0.00514984,-0.0248337,-0.187531,0.0462723
265,0,0.00484467,0.00156403,-0.083046,0.121117,0.00587463
265,1,0.0150681,-0.00205994,0.00476837,0.351257,0.00522614
265,2,0.0186539,-0.00362396,-0.251503,0.0454712,0.0284576
265,3,0.0209427,0.0124359,-0.300674,-0.106964,0.0682068
265,4,0.016861,0.000267029,-0.133591,-0.0358582,0.101585
266,0,0.0137329,-0.0310135,0.0316238,0.0307465,0.11673
266,1,0.0171661,-0.00587463,0.171432,0.0297928,0.105743
266,2,0.0019455,0.0184631,0.249252,0.0455093,0.0979233
266,3,-0.0122452,0.0298691,0.225487,0.0828552,0.0972366
266,4,-0.0128174,0.0106049,0.201302,0.121841,0.0951767
267,0,-0.00988007,-0.0163651,0.214081,0.0435257,0.0685883
267,1,-0.00179291,-0.0136566,0.256195,0.0503159,0.052948
267,2,-0.00583649,-0.00141144,0.245247,-0.0308228,0.0484848
267,3,-0.00507355,-0.00335693,0.222397,-0.0956726,0.0509262
267,4,-0.000228882,-0.00968933,0.273399,-0.0756073,0.0447845
268,0,0.00434875,-0.00152588,0.0738907,-0.0069046,0.0344849
268,1,0.00946045,-0.00102997,-0.0955963,0.123863,0.0480652
268,2,0.0128937,0.0069809,-0.0921631,0.230484,0.0762177
268,3,0.0119781,0.036087,-0.059967,0.111961,0.0950241
268,4,0.0111389,0.0289536,0.130501,0.183105,0.0982285
269,0,0.0107956,0.0069046,0.140648,0.235329,0.0942993
269,1,0.0102234,0.00465393,0.116196,0.268211,0.0896454
269,2,0.00984192,0.00202179,0.279198,0.110779,0.0792694
269,3,0.00617981,0.00480652,0.25425,0.0568771,0.0426102
269,4,0.00297546,-0.0102997,-0.0227737,0.220833,0.0474167
270,0,-0.00576019,-0.0133896,-0.152588,0.172806,0.0445938
270,1,-0.00579834,-0.00743866,-0.0930786,0.118103,0.0738525
270,2,-0.0164795,0.00423431,-0.0672531,0.034523,0.0881577
270,3,-0.0235367,0.017662,0.0640488,0.106659,0.0978088
270,4,-0.0186539,0.000915527,0.199776,0.14389,0.0855255
271,0,-0.0127029,-0.018425,0.10437,0.264969,0.0682068
271,1,-0.0102997,-0.00904083,0.00919342,0.273399,0.0666046
271,2,-0.00362396,-0.0106049,-0.193062,0.0709534,0.0783539
271,3,0.00946045,-0.0120544,-0.0905609,0.018425,0.0784683
271,4,0.0102615,-0.0114822,0.0143433,-0.0370026,0.0748825
272,0,0.0122833,-0.00530243,0.0500107,-0.0922394,0.0695419
272,1,-0.000610352,-0.0124359,0.118446,-0.118256,0.0737
272,2,-0.014801,-0.0234604,0.194626,-0.0772476,0.0847244
272,3,-0.0254059,-0.0401688,0.236015,-0.0724411,0.104218
272,4,-0.0376892,-0.0429535,0.182915,-0.264664,0.071106
273,0,-0.0388718,-0.0231171,0.0546646,-0.269852,0.031662
273,1,-0.0357437,-0.0117874,-0.010643,0.184822,0.0181961
273,2,-0.0139236,0.00705719,0.056076,0.20153,0.0426865
273,3,0.0117493,0.026207,0.0428391,0.231285,0.0907516
273,4,0.018692,0.0449753,-0.207558,0.311813,0.103035
274,0,0.00968933,0.0474548,-0.189972,0.278969,0.094986
274,1,0.00541687,0.0455093,-0.188255,0.191765,0.0773621
274,2,0.00530243,0.030899,0.017395,0.186005,0.104866
274,3,0.0189209,0.01194,-0.0521088,0.143623,0.123749
274,4,0.0281525,-0.000190735,-0.059967,0.033493,0.102844
275,0,0.0210953,0.0114059,0.0305939,-0.113564,0.0668335
275,1,0.0102615,0.00740051,0.090332,-0.220337,0.0452423
275,2,0.0151443,0.00865936,0.193024,-0.25074,0.0563431
275,3,0.0312042,0.00473022,0.420113,-0.206795,0.0619125
275,4,0.034256,0.0146103,0.455894,-0.0728989,0.0690079
276,0,0.033493,-0.0129318,0.452461,0.148849,0.0512695
276,1,0.0299835,-0.0408936,0.377693,0.163536,0.0335693
276,2,0.0376129,-0.0261307,0.0932312,0.240593,0.0547409
276,3,0.0180054,-0.0276566,-0.0508499,0.287781,0.0808334
276,4,0.0100708,-0.00259399,-0.0751877,0.0908661,0.0849915
277,0,0.00209808,0.0117874,-0.0333786,0.0999451,0.0705719
277,1,-0.00484467,-0.00354767,-0.0715256,-0.0127792,0.0656891
277,2,0.00679016,0.00682831,-0.0351334,0.137177,0.0679779
277,3,-0.0133133,0.0127411,-0.00213623,0.0932693,0.0706863
277,4,-0.0375366,0.000839233,0.0472641,0.0459671,0.0818253
278,0,-0.0526047,0.000152588,0.0659943,0.111427,0.0868225
278,1,-0.0452805,-0.00514984,0.0662994,0.108147,0.0885773
278,2,-0.0210571,-0.00221252,-0.0477219,0.11116,0.0954056
278,3,-0.0291061,-0.000610352,0.113716,0.112381,0.0901413
278,4,-0.0251007,0.000762939,0.263672,0.0712204,0.0653839
279,0,-0.00663757,-0.000190735,0.0797272,0.0835419,0.0371552
279,1,0.00148773,-0.000190735,0.0920486,0.0566483,0.0441742
279,2,0.00797272,0.00320435,-0.145035,0.0392914,0.0771332
279,3,0.0165939,0.00598907,-0.292854,0.0122833,0.101357
279,4,0.0116348,0.000801086,-0.316811,0.0987244,0.10479
280,0,0.0094223,0.00141144,-0.191803,0.14183,0.0890732
280,1,0.00358582,0.00736237,0.0128555,0.194778,0.0846863
280,2,-0.0157166,0.00202179,0.0791931,0.144081,0.0779724
280,3,-0.0313187,-0.00110626,0.0915146,0.162621,0.0728607
280,4,-0.0128937,-0.00396729,0.173645,0.167694,0.0572205
281,0,-0.00244141,-0.0094223,0.19886,0.0803757,0.0428009
281,1,-0.00965118,-0.00801086,0.215912,-0.0229645,0.0366211
281,2,-0.0321198,-0.00545502,0.173759,-0.0688171,0.0525284
281,3,-0.0297928,-0.0050354,0.190887,-0.0261307,0.0707245
281,4,0.00453949,-0.00324249,0.184059,-0.0270462,0.0857162
282,0,0.0133514,-0.0019455,0.0601578,0.043602,0.0689697
282,1,0.0191498,0.00324249,0.223656,0.183754,0.0579834
282,2,0.0275421,0.00087738,0.139694,0.242538,0.0569916
282,3,0.0443649,-0.00267029,0.104408,0.248871,0.0931931
282,4,0.0458908,-0.00461578,0.0500107,0.250053,0.0933456
283,0,0.037117,-0.000343323,0.0117874,0.192108,0.0824356
283,1,0.0330734,0.00728607,0.00579834,0.00225067,0.0611877
283,2,0.0313187,0.00133514,-0.0270081,-0.0294113,0.053215
283,3,0.0218201,-0.00198364,-0.0178528,-0.138817,0.0542068
283,4,0.0170517,0.0088501,0.186653,-0.162888,0.0518036
284,0,0.00694275,0.0063324,0.137291,-0.038681,0.0601959
284,1,0.000801086,0.00499725,0.0517273,-0.0957108,0.0449371
284,2,-0.000915527,0.00637054,0.0938416,-0.138626,0.0393295
284,3,-0.00640869,-0.00267029,0.172462,-0.10788,0.0543976
284,4,-0.0128937,-0.0131989,-0.0764465,-0.0813293,0.0767517
285,0,-0.0156784,-0.00423431,-0.0465012,-0.0329208,0.0807571
285,1,-0.0187302,-0.0087738,-0.0175858,0.0574493,0.0818634
285,2,-0.0156784,-0.00717163,-0.0835037,0.146332,0.0862885
285,3,-0.013237,-0.00160217,-0.0839615,0.177116,0.0928116
285,4,-0.0100708,0.001297,-0.116501,0.187988,0.102806
286,0,-0.0138092,0.00610352,-0.0294495,0.252457,0.110817
286,1,-0.0144577,0.0062561,0.0255585,0.285034,0.109444
286,2,-0.014534,0.00579834,0.0318527,0.241966,0.105095
286,3,-0.00995636,0.0149536,0.193367,0.193901,0.100479
286,4,-0.0102997,0.0320053,0.172157,0.135994,0.0877762
287,0,-0.0151443,0.0291824,0.0927353,0.0723267,0.0699615
287,1,-0.00843048,-0.0123978,0.111046,0.0540161,0.0671768
287,2,-0.0062561,-0.0104904,0.0636673,0.0495148,0.064888
287,3,-0.00518799,0.00087738,0.107079,0.0579453,0.0669861
287,4,-0.00541687,-0.00286102,0.12722,0.0665283,0.0732803
288,0,-0.00289917,-0.0116348,0.108948,0.0555801,0.0601959
288,1,-0.00289917,-0.00999451,0.166321,0.0390244,0.057869
288,2,-0.000801086,-0.0138855,0.157318,0.0382233,0.0629044
288,3,-0.00114441,-0.00934601,0.123482,0.0444794,0.0637436
288,4,-0.00286102,0.0131607,0.113602,0.0538635,0.0641632
289,0,-7.63E-05,-0.00534058,0.0673294,0.0650024,0.0614166
289,1,0.00240326,-0.0175095,0.0355148,0.0553131,0.0550461
289,2,0.00740051,-0.00038147,-0.027771,0.0275421,0.0495148
289,3,0.0069046,0.0243378,-0.126572,0.0362778,0.0553513
289,4,0.00888824,0.00263214,-0.0673676,0.05867,0.0613785
290,0,0.00862122,-0.0030899,0.21698,0.0469208,0.0613022
290,1,0.0069809,0.0124359,0.163498,0.0627136,0.0743866
290,2,0.0056839,0.00377655,-0.0155258,0.0572205,0.0859833
290,3,0.00671387,-0.00476837,0.0217819,0.0966263,0.0885773
290,4,0.0037384,-0.00656128,0.0142288,0.141449,0.0907135
291,0,0.0043869,-0.00640869,-0.0289536,0.208893,0.0809479
291,1,0.0094986,-0.00617981,-0.0253296,0.220413,0.0818634
291,2,0.00968933,-0.00110626,0.0143433,0.169983,0.0780487
291,3,0.00614166,0.000610352,0.0461197,0.138168,0.0801086
291,4,0.00495911,0.000305176,0.0737,0.108566,0.0774765
292,0,0.00411987,0.000648499,0.0824356,0.0317383,0.0663757
292,1,0.00621796,0.00114441,0.0869751,-0.00469208,0.0662231
292,2,0.00415802,0.000114441,0.0807953,-0.00873566,0.0580215
292,3,0.0019455,0.00286102,0.0807953,-0.0208664,0.0577164
292,4,-0.0012207,0.0019455,0.0774384,-0.0238419,0.0626373
293,0,-0.00404358,-0.00137329,0.0697708,-0.0208282,0.0614548
293,1,-0.00354767,0.00400543,0.0654984,-0.0069046,0.0637054
293,2,-0.00286102,0.00507355,0.0695419,0.0100708,0.0671005
293,3,-0.00213623,0.00255585,0.0691986,0.0193024,0.072403
293,4,0,0.00457764,0.0640488,0.0326157,0.071106
294,0,-0.0030899,0.00358582,0.0616837,0.0426865,0.0699234
294,1,-0.00160217,0.00530243,0.0570679,0.0543213,0.0709534
294,2,-0.00282288,0.00228882,0.0553894,0.0712585,0.0753784
294,3,-0.00442505,-0.000457764,0.0554276,0.0804138,0.0773239
294,4,-0.0056839,-0.00213623,0.0574875,0.0917053,0.0782013
295,0,-0.00579834,-0.00705719,0.05867,0.0839996,0.0741196
295,1,-0.00343323,-0.00358582,0.0595474,0.0797272,0.0681305
295,2,0.00038147,-0.000114441,0.060997,0.0871277,0.0711441
295,3,0.00144958,0.00125885,0.0593185,0.0932693,0.0739288
295,4,0.00377655,0.00354767,0.0559235,0.103073,0.0730133
296,0,0.00236511,0.00396729,0.0472641,0.101204,0.0674057
296,1,0.000343323,0.00442505,0.0489426,0.110588,0.0691986
296,2,0.000953674,3.81E-05,0.0497437,0.11322,0.0759888
296,3,0.00225067,-0.000152588,0.0522232,0.0997543,0.0785446
296,4,0.00259399,-0.00335693,0.0536728,0.0881577,0.0783539
297,0,0.00183105,-0.00480652,0.0506973,0.091629,0.0807571
297,1,0.00259399,-0.0025177,0.050087,0.0964355,0.0765991
297,2,0.00247955,-0.00431061,0.0429153,0.0974274,0.0784683
297,3,0.00587463,-0.000457764,0.0598526,0.107117,0.0825119
297,4,0.00545502,0.000457764,0.0730896,0.102234,0.0802231
298,0,0.00389099,-0.001297,0.0581741,0.0824738,0.0793076
298,1,0.00610352,-0.00324249,0.0557709,0.0637817,0.0745392
298,2,0.00740051,-0.0019455,0.0535583,0.0496292,0.0694275
298,3,0.00579834,-0.00171661,0.0551605,0.0439072,0.0680161
298,4,0.0075531,-0.00274658,0.0650787,0.0496292,0.0734329
299,0,0.0043869,0.000343323,0.0656891,0.0479126,0.0714111
299,1,-0.00156403,-0.00209808,0.0669861,0.0502777,0.0702667
299,2,-0.00263214,0,0.0680542,0.0527573,0.0720215
299,3,-0.00038147,-0.000572205,0.0682449,0.0577545,0.0744629
299,4,-0.00572205,0.000534058,0.0724792,0.0624847,0.0754166
300,0,-0.00602722,0.00205994,0.0699234,0.0638199,0.071907
300,1,-0.00408173,0.00362396,0.0690079,0.059967,0.068512
300,2,-0.00827789,0.00431061,0.0673294,0.0615311,0.0704575
300,3,-0.00888824,0.00244141,0.0628662,0.0632477,0.0695038
300,4,-0.0115204,-0.00102997,0.0603867,0.0617599,0.0676727
301,0,-0.0130463,-0.001297,0.0553513,0.0610352,0.0643158
301,1,-0.0123978,-0.000190735,0.0528717,0.0642395,0.0652695
301,2,-0.00541687,0.000801086,0.0525665,0.0681305,0.0676346
301,3,-0.00312805,0.00301361,0.0488663,0.0714111,0.0686646
301,4,-0.00278473,0.00202179,0.0463486,0.0772858,0.071106
302,0,-0.00286102,0.00225067,0.0450516,0.0774384,0.0683212
302,1,-0.00175476,-0.000190735,0.0432587,0.0748444,0.0743484
302,2,0.000610352,-0.00217438,0.0476074,0.0727844,0.0740433
302,3,0.00164032,0.000648499,0.0524902,0.0748062,0.0712585
302,4,0.00621796,0.00205994,0.0524521,0.0759506,0.0728989
303,0,0.00358582,-0.00213623,0.0531769,0.0723267,0.0688171
303,1,0.00717163,-0.000991821,0.0494385,0.0759125,0.0718689
303,2,0.0119781,-0.000610352,0.0548172,0.0798798,0.0712585
303,3,0.0149918,-0.00038147,0.0579071,0.0786972,0.0754166
303,4,0.0118637,0.0031662,0.0599289,0.0812531,0.075531
304,0,0.0112534,0.00289917,0.0615311,0.0793076,0.0780106
304,1,0.01091,-0.000152588,0.062027,0.0786209,0.0743484
304,2,0.00701904,-0.000801086,0.0601959,0.0786972,0.073967
304,3,0.00892639,0.0018692,0.064888,0.072403,0.0722122
304,4,0.00312805,-0.00106812,0.0623703,0.0696945,0.0750351
305,0,0.00404358,-0.00183105,0.0624847,0.0660706,0.0686264
305,1,0.00232697,-0.00141144,0.0601196,0.0668716,0.0683594
305,2,-0.00476837,0.00156403,0.057106,0.0679779,0.0722122
305,3,-0.00343323,0.00278473,0.0598145,0.0733185,0.0782013
305,4,-0.00801086,0.00408173,0.0577164,0.0714874,0.0793457
306,0,-0.00610352,0.00537872,0.0600433,0.0699615,0.0816727
306,1,-0.0075531,0.00110626,0.0585175,0.0682068,0.0786591
306,2,-0.0062561,0.000457764,0.0615692,0.0689316,0.0720978
306,3,-0.00675201,-0.00247955,0.0628281,0.0669098,0.071907
306,4,-0.00682831,-0.0044632,0.0585175,0.0669479,0.0696564
307,0,-0.00232697,-0.0101852,0.0513458,0.062561,0.067749
307,1,-0.00221252,-0.00579834,0.0551224,0.0659561,0.0672531
307,2,-0.00297546,-0.000152588,0.0536346,0.0681305,0.0628662
307,3,0.00087738,-0.00167847,0.0550079,0.0710678,0.0657272
307,4,0.00751495,-0.00164032,0.0561142,0.071907,0.0698471
308,0,0.00518799,0.00221252,0.0606537,0.0688553,0.0702667
308,1,0.00370026,0.00343323,0.0618362,0.0697327,0.0760269
308,2,0.00431061,0.00301361,0.0564194,0.0726318,0.0760651
308,3,0.00545502,0.000343323,0.0563431,0.0735092,0.0848007
308,4,0.00247955,0.000572205,0.0559616,0.0717926,0.0752258
309,0,0.000114441,-0.00102997,0.0531769,0.0695801,0.063591
309,1,-0.00442505,0.000152588,0.0554657,0.0748062,0.0654602
309,2,-0.00217438,0.000801086,0.0588226,0.0771332,0.0666428
309,3,0.00144958,0.00400543,0.0600052,0.0812149,0.0692368
309,4,0.00404358,0.00415802,0.0606155,0.0816345,0.07164
310,0,0.00411987,0.00400543,0.0621033,0.0797272,0.0733185
310,1,0.000839233,0.00469208,0.0575256,0.0770187,0.0833893
310,2,-0.00114441,0.00389099,0.056572,0.0783157,0.0898361
310,3,-0.00244141,0.00282288,0.0578308,0.0731659,0.0914764
310,4,-0.000686646,0.00156403,0.0584412,0.0692368,0.0931931
311,0,-0.00659943,-0.000152588,0.058136,0.0616837,0.0825119
311,1,-0.00720978,7.63E-05,0.0590515,0.0694275,0.0840759
311,2,-0.00217438,0.000343323,0.0589371,0.0698853,0.0881195
311,3,-0.00423431,0.000724792,0.0613785,0.0706482,0.086441
311,4,-0.00240326,0.000762939,0.0631714,0.0731659,0.0902557
312,0,0.00137329,-0.00175476,0.0651169,0.0766754,0.0892258
312,1,-0.00114441,0.000495911,0.0654602,0.0757599,0.103836
312,2,-0.00289917,0.00213623,0.0675583,0.0720978,0.0959396
312,3,-0.0019455,0.000686646,0.0651932,0.0667953,0.0606918
312,4,-0.00175476,-0.00469208,0.0621033,0.0650787,0.0210571
313,0,-0.0044632,-0.0104141,0.0588608,0.05867,0.00087738
313,1,-0.00038147,-0.0119781,0.0586319,0.0579071,0.0244904
313,2,0.00389099,-0.00286102,0.0592041,0.0613403,0.0407791
313,3,0.00736237,-0.000991821,0.056839,0.0642014,-0.00629425
313,4,0.00854492,0.000152588,0.058403,0.0656509,-0.0197601
314,0,0.00930786,-0.000839233,0.0569153,0.0667953,0.0383759
314,1,0.0056076,0.00125885,0.0533676,0.0689697,0.0822067
314,2,0.00587463,0.00209808,0.0514603,0.0704575,0.139503
314,3,0.00656128,0.00495911,0.0469589,0.0708389,0.152855
314,4,0.00556946,0.000953674,0.0453186,0.0698853,0.141563
315,0,0.000534058,-0.00240326,0.045166,0.0656891,0.109215
315,1,-0.000152588,0.000495911,0.0443268,0.0656509,0.101051
315,2,0.000762939,0.00247955,0.0439835,0.0654602,0.131569
315,3,-0.00289917,0.00221252,0.0451279,0.067749,0.0935745
315,4,-0.000267029,0.00255585,0.0424957,0.0688934,-0.0727081
316,0,-0.000305176,0.00263214,0.0483704,0.0639725,-0.173912
316,1,-0.00118256,0.00354767,0.049324,0.0636673,-0.177383
316,2,-7.63E-05,0.00175476,0.0576782,0.0691986,-0.0301361
316,3,-0.00339508,-0.000686646,0.0606537,0.076828,0.127831
316,4,-0.00415802,-0.00205994,0.0629425,0.0803757,0.171738
317,0,-0.0100708,-0.00305176,0.0634766,0.0814438,0.156822
317,1,-0.00728607,-0.000686646,0.0648117,0.0811005,0.119591
317,2,-0.00350952,0.00133514,0.0714111,0.0773239,0.1474
317,3,0.00102997,0.00431061,0.0695038,0.0764847,0.110893
317,4,-0.00152588,0.00419617,0.0662613,0.0775528,0.138321
318,0,-0.00141144,0.0044632,0.0647736,0.0793839,0.169258
318,1,0.000686646,0.00408173,0.0631714,0.0761795,0.17952
318,2,0.00141144,-0.000839233,0.0562668,0.0751114,0.194397
318,3,0.000572205,-0.000228882,0.0555038,0.066452,0.190353
318,4,0.000495911,0.000228882,0.0568008,0.0631332,0.149307
319,0,-0.00148773,-0.00232697,0.0521469,0.059967,0.092659
319,1,0.000801086,-0.00118256,0.0526428,0.0609207,0.0782013
319,2,0.00427246,0.000991821,0.0527573,0.0595474,0.0806808
319,3,0.00595093,0.000419617,0.0551605,0.0589752,0.151024
319,4,0.0043869,-0.00144958,0.0587845,0.0572586,0.149918
320,0,0.00305176,-0.00205994,0.0557709,0.062027,0.0345993
320,1,0.00404358,-0.000114441,0.0644302,0.0754547,-0.0170517
320,2,0.00617981,-0.000305176,0.0721359,0.0802612,0.0108719
320,3,0.00144958,0.0018692,0.0757217,0.0880814,0.0448227
320,4,-0.00087738,-0.000495911,0.0744629,0.0906372,0.0772858
321,0,-0.0038147,-0.00457764,0.0668716,0.0790787,0.0609589
321,1,-0.00259399,-0.00358582,0.062027,0.0709152,0.0435638
321,2,0.00297546,-0.00263214,0.0563049,0.0654602,0.0249863
321,3,0.00442505,0.00179291,0.0479126,0.065918,0.0440979
321,4,0.00793457,0.00209808,0.0460052,0.0659943,0.0788879
322,0,0.00915527,0.00125885,0.0435257,0.069046,-0.0440598
322,1,0.00675201,-0.00102997,0.0445175,0.0675201,-0.228271
322,2,0.00236511,-0.00175476,0.0517273,0.0749969,-0.290375
322,3,0.00110626,-0.00267029,0.0566864,0.0757217,-0.202332
322,4,0.000343323,-0.0031662,0.064621,0.0773239,-0.106697
323,0,-0.00202179,-0.00747681,0.0653076,0.0777054,-0.00988007
323,1,-0.00286102,-0.00499725,0.0684738,0.0792313,0.119362
323,2,-0.000419617,0.00167847,0.0720215,0.0802994,0.188828
323,3,-0.00312805,0.00125885,0.073204,0.0744247,0.23735
323,4,-0.00743866,0.00507355,0.0697327,0.0749588,0.22316
324,0,-0.00797272,0.00209808,0.0620651,0.071907,0.210609
324,1,-0.00591278,0.00488281,0.0600052,0.0719452,0.192032
324,2,-0.0030899,0.00530243,0.0547028,0.0675583,0.195084
324,3,0.00110626,0.00423431,0.0523758,0.0679398,0.180893
324,4,0.00152588,0.00259399,0.0495148,0.062561,0.158424
325,0,-0.000305176,-0.00247955,0.0470734,0.0582886,0.14576
325,1,-0.00328064,-0.00377655,0.0477982,0.0630569,0.200691
325,2,0.00354767,-0.00133514,0.0472641,0.0648117,0.229454
325,3,0.0082016,0.0030899,0.0469208,0.0641251,0.218277
325,4,0.00545502,0.0031662,0.0485992,0.0642776,0.179405
326,0,0.00469208,0.00572205,0.0553131,0.0695801,0.0817108
326,1,0.00278473,-0.000267029,0.0605011,0.073967,-0.00469208
326,2,0.00156403,0.00133514,0.0547028,0.0725555,-0.0483704
326,3,0.00278473,0.00217438,0.057106,0.0686264,0.00148773
326,4,0.00232697,-0.00133514,0.056076,0.0709915,-0.0174713
327,0,0.000495911,-0.0069046,0.047493,0.065155,-0.108376
327,1,-0.00118256,-0.00293732,0.0450897,0.0592041,-0.119629
327,2,0.000152588,0.00305176,0.0494385,0.0608063,-0.0508118
327,3,-0.00694275,0.00209808,0.055542,0.0679779,0.0279236
327,4,-0.00736237,0.000801086,0.0627518,0.0769043,0.103569
328,0,-0.0102997,0.00293732,0.0636673,0.0826263,0.119247
328,1,-0.00995636,-0.00247955,0.0626373,0.0812912,0.139885
328,2,-0.0037384,-0.00179291,0.0647354,0.0812531,0.188065
328,3,-0.0127411,0.00171661,0.066452,0.0855255,0.193634
328,4,-0.00305176,-0.0012207,0.0662231,0.0869751,0.172081
329,0,0.00335693,-0.00473022,0.0605774,0.0785828,0.173721
329,1,0.00301361,-0.00522614,0.0575638,0.074501,0.185318
329,2,0.00591278,-0.00343323,0.0537491,0.0712204,0.145073
329,3,0.00984192,0.000953674,0.0533295,0.0672913,0.0762177
329,4,0.00957489,0.00301361,0.0517273,0.0612259,0.0164413
330,0,0.00919342,0.0031662,0.0498962,0.0538635,0.00465393
330,1,0.0159073,0.00213623,0.0434875,0.054512,0.0069809
330,2,0.00637054,0.00320435,0.043869,0.0542068,0.0447464
330,3,-0.000343323,0.00328064,0.0463867,0.0584793,-0.097847
330,4,0.00350952,-0.00110626,0.0584793,0.0609589,-0.193634
331,0,0.00427246,-0.001297,0.0642776,0.0662994,-0.23838
331,1,0.0102615,-0.00301361,0.0654984,0.0726318,-0.0910187
331,2,0.0156784,-0.00328064,0.0708008,0.0846863,0.135422
331,3,0.0030899,-0.000724792,0.0794601,0.0885773,0.229492
331,4,-0.0224686,0.00164032,0.0799942,0.0890732,0.0744247
332,0,-0.0519943,0.00289917,0.0771713,0.086174,0.0585175
332,1,-0.0637436,0.000267029,0.0720978,0.0827026,0.134048
332,2,-0.0476074,0.00461578,0.0634003,0.0761795,0.0626755
332,3,-0.0180435,0.00629425,0.0629044,0.0760269,0.000305176
332,4,-0.00862122,0.00331879,0.0631332,0.0749969,-0.0604248
333,0,-0.00205994,-0.000419617,0.0588989,0.0719452,-0.0727081
333,1,0.0110626,-0.00156403,0.0524902,0.0645828,0.198441
333,2,0.0293732,-0.00247955,0.046463,0.059967,0.350494
333,3,0.0494385,-0.00133514,0.0484467,0.0669098,0.302162
333,4,0.0513458,0.00301361,0.0495911,0.0680161,0.148697
334,0,0.0523758,0.00217438,0.056076,0.0682831,0.0508881
334,1,0.0347519,0.00209808,0.0592041,0.0708389,0.00221252
334,2,0.010376,0.00354767,0.0679398,0.0751495,0.249825
334,3,0.00640869,0.00400543,0.0690079,0.0831604,0.39772
334,4,0.0075531,0.00694275,0.0641632,0.0770187,0.251656
335,0,0.0113297,-0.000305176,0.0595093,0.0696182,0.160866
335,1,0.00709534,-0.000343323,0.0599289,0.0666428,0.08564
335,2,0.0069809,-0.00175476,0.0557327,0.0593185,0.124626
335,3,0.0018692,-0.00976563,0.0393295,0.0489044,0.149994
335,4,0.00469208,-0.0106049,0.0255203,0.0401688,0.0154114
336,0,-0.0019455,-0.0082016,0.0187683,0.0363922,-0.250168
336,1,-0.00267029,-0.00831604,0.0292587,0.0461197,-0.288849
336,2,-0.00591278,-0.0125504,0.0455475,0.0704956,-0.195999
336,3,-0.00648499,-0.0094223,0.060997,0.0879669,0.101738
336,4,-0.010643,-0.00904083,0.0754547,0.0961304,0.103188
337,0,-0.00873566,-0.00602722,0.0816727,0.0993729,0.0371933
337,1,-0.00743866,-0.00202179,0.0820923,0.0914383,0.0551987
337,2,-0.00331879,0.00545502,0.0759125,0.0862885,0.0427628
337,3,-0.00270844,0.0108337,0.0700378,0.0805283,-0.00156403
337,4,-0.00514984,0.00530243,0.0723648,0.0780869,0.0652695
338,0,-0.0104141,0.00240326,0.0570297,0.0739288,0.143356
338,1,-0.0121689,0.00732422,0.0485611,0.0611877,0.130653
338,2,-0.0138474,0.00656128,0.0403214,0.0536728,0.0659943
338,3,-0.0172043,0.00118256,0.0363541,0.0523376,0.0141907
338,4,-0.0151443,0.000534058,0.0353622,0.0525665,0.0176239
339,0,-0.0151825,-0.0031662,0.0359344,0.0500488,0.179634
339,1,-0.00965118,-0.00217438,0.0377274,0.0551224,0.232048
339,2,-0.00442505,0.00537872,0.0469971,0.0667953,0.223541
339,3,0.00171661,0.00816345,0.0606918,0.075798,0.104561
339,4,-3.81E-05,0.0174332,0.068779,0.0812531,-0.0311279
340,0,-0.00926971,0.0177765,0.0727463,0.0807571,-0.00488281
340,1,-0.0147629,0.0163651,0.0758362,0.0809479,0.059967
340,2,-0.0170517,0.015831,0.0788498,0.0837708,0.166092
340,3,-0.0212479,0.0122452,0.0782013,0.083313,0.21534
340,4,-0.0177002,0.0213242,0.0738144,0.0839615,0.246429
341,0,-0.00450134,0.0397491,0.0645828,0.080719,0.220604
341,1,0.0094223,0.0168991,0.0562668,0.0708771,0.139923
341,2,0.0188446,-0.0025177,0.0473785,0.06073,0.0720215
341,3,0.02491,-0.0156403,0.0346375,0.0525284,0.0339127
341,4,0.0278854,-0.0166702,0.0314331,0.0519562,-0.126343
342,0,0.0256348,0.00221252,0.0382996,0.0560379,-0.310783
342,1,0.0184631,0.0104141,0.058136,0.0772095,-0.240059
342,2,0.0194168,0.00118256,0.0671005,0.0871277,-0.0273895
342,3,0.0224304,-0.0303268,0.0779724,0.0912476,0.138016
342,4,0.0213242,-0.0462723,0.0897598,0.0973129,0.256882
343,0,0.013504,-0.0492477,0.097084,0.105438,0.121155
343,1,0.00839233,-0.0406265,0.097847,0.102425,0.017128
343,2,0.013504,-0.0315094,0.0910568,0.0928116,0.0407028
343,3,0.0133514,-0.0265884,0.0694275,0.0716019,0.0429535
343,4,0.0056076,-0.0265121,0.0547028,0.0554276,0.016098
344,0,-0.0030899,-0.0215912,0.0449753,0.0469589,-0.149078
344,1,-0.00793457,-0.0179672,0.0429916,0.0476456,0.00228882
344,2,-0.0257874,-0.011673,0.0463486,0.0548935,0.17189
344,3,-0.0363922,-0.00530243,0.0481033,0.0618744,0.276031
344,4,-0.0550079,0,0.0525284,0.064621,0.28614
345,0,-0.0437164,0.00263214,0.0514603,0.0674438,0.269432
345,1,-0.0227356,0.0105286,0.0505829,0.0696182,0.225677
345,2,-0.00370026,0.0220871,0.0503159,0.0684357,0.184059
345,3,0.0056839,0.0325775,0.0494385,0.0666428,0.178185
345,4,0.00038147,0.0383759,0.0405502,0.059967,0.121384
346,0,-0.000114441,0.0403214,0.0344086,0.0510788,0.0224686
346,1,0.00530243,0.0349426,0.0358963,0.0515366,-0.099678
346,2,0.0152206,0.0279617,0.0368118,0.0500107,-0.125198
346,3,0.0309753,0.0250626,0.0308228,0.0470352,-0.00411987
346,4,0.0392532,0.0194931,0.0413895,0.0553894,-0.0333405
347,0,0.0246429,0.00976563,0.0395584,0.0527954,-0.0952148
347,1,0.00232697,0.00595093,0.0427246,0.0562286,-0.0516129
347,2,-0.0125504,0.00190735,0.0631714,0.0793457,0.0075531
347,3,-0.00255585,-0.00236511,0.0744629,0.0971222,0.130768
347,4,0.00782013,-0.00156403,0.0816345,0.109253,0.14492
348,0,0.0107574,0.00106812,0.087471,0.106392,0.103111
348,1,0.0130463,0.00183105,0.0824356,0.0954437,0.075531
348,2,0.0127792,0.0050354,0.0785065,0.0898361,0.0904465
348,3,0.00617981,0.00476837,0.0714874,0.0839996,0.135345
348,4,0.00259399,-0.00591278,0.0672913,0.0766754,0.146027
349,0,0.00320435,-0.00984192,0.0590897,0.0657654,0.138588
349,1,-0.000190735,-0.0121689,0.0540161,0.0635529,0.143013
349,2,-0.000495911,-0.010643,0.0498962,0.0669861,0.148201
349,3,-0.00392914,-0.00896454,0.051918,0.067749,0.137787
349,4,-0.00144958,-0.0075531,0.0518417,0.069809,0.125275
350,0,-0.000762939,-0.00789642,0.0543213,0.0715256,0.10891
350,1,-0.00213623,-0.00938416,0.0530624,0.069046,0.105934
350,2,-0.00476837,-0.00980377,0.0562668,0.0692749,0.110054
350,3,-0.0044632,-0.00598907,0.0592041,0.0712967,0.102768
350,4,-0.00572205,-0.00724792,0.0562286,0.0731277,0.0859833
351,0,-0.00793457,-0.000686646,0.049324,0.0666809,0.0674057
351,1,-0.00705719,-0.000114441,0.0469589,0.0641251,0.0736237
351,2,-0.00621796,-0.000228882,0.0510025,0.0640106,0.0463867
351,3,-0.00789642,0.000190735,0.0512695,0.0658798,-0.0931931
351,4,-0.00701904,0.00217438,0.0558472,0.0719833,-0.103416
352,0,-0.00541687,0.000686646,0.0577927,0.0732803,-0.0281143
352,1,-0.00686646,-0.000114441,0.0619888,0.0699615,0.0603485
352,2,-0.00732422,-0.00087738,0.0653076,0.0747681,0.0795364
352,3,-0.00228882,-0.00232697,0.062561,0.0765991,0.0832748
352,4,-0.00389099,-0.00522614,0.0679016,0.0734711,0.0717545
353,0,-0.00198364,0.00247955,0.0659561,0.0654602,0.0543976
353,1,0.000610352,0.00659943,0.0610352,0.0639725,0.0461197
353,2,0.00728607,0.00377655,0.0603104,0.0701141,0.0627518
353,3,0.0094223,0.0050354,0.0589752,0.0721359,0.0700378
353,4,0.0126266,0.0101471,0.0630569,0.0714874,0.0745773
354,0,0.00522614,0.00164032,0.0605774,0.0720978,0.0721741
354,1,-0.00152588,0.00110626,0.0588989,0.0675964,0.0736237
354,2,-0.00247955,0.00968933,0.0564957,0.0670242,0.0766373
354,3,-0.00961304,-0.0030899,0.0585556,0.063858,0.0782394
354,4,-0.0101852,-0.0069046,0.0590897,0.0654602,0.0791931
355,0,-0.0135803,-0.00587463,0.0561905,0.0632858,0.0775909
355,1,-0.0182724,-7.63E-05,0.0576401,0.0657272,0.0789642
355,2,-0.0109863,0.000953674,0.0621033,0.0698471,0.0847244
355,3,0.00408173,0.00270844,0.059967,0.0719452,0.0865936
355,4,0.0144196,0.00255585,0.0606537,0.0739288,0.0893784
356,0,0.0127029,0.00114441,0.0588989,0.0774384,0.0920105
356,1,0.0130844,-0.00301361,0.0583649,0.0769043,0.0893784
356,2,0.0069046,-0.00236511,0.0621796,0.0775528,0.0884247
356,3,0.00816345,-0.000915527,0.0605392,0.074501,0.0917816
356,4,0.00938416,-0.00263214,0.0587463,0.0737,0.0870132
357,0,0.000686646,-0.00804901,0.0572586,0.0711441,0.0854492
357,1,0.00247955,-0.00934601,0.0551224,0.0695038,0.0777817
357,2,0.0075531,-0.0141144,0.0583649,0.0689697,0.0723648
357,3,0.00587463,0.00457764,0.0563812,0.0666046,0.0587845
357,4,0.00816345,-0.00038147,0.0576782,0.0662994,0.0417709
358,0,0.00556946,0.00240326,0.0520706,0.0662994,0.0547409
358,1,0.00392914,0.0121689,0.0525284,0.0711823,0.0830841
358,2,0.00289917,0.0435638,0.0533676,0.0714111,0.0893402
358,3,0.00267029,0.0168991,0.056076,0.0736237,0.0853729
358,4,-0.000686646,-0.013237,0.0571442,0.0722504,0.0808716
359,0,-0.00102997,-0.0146103,0.0563431,0.0711441,0.0797272
359,1,-0.00324249,0.00312805,0.0608826,0.0724792,0.0830841
359,2,-0.00339508,-0.00244141,0.0601196,0.075531,0.0796127
359,3,-0.000152588,-0.0107956,0.0603104,0.0744629,0.0746536
359,4,-0.000915527,0.0025177,0.0603867,0.0772476,0.0697708
360,0,-0.000762939,0.00221252,0.0560379,0.0741959,0.0691986
360,1,-0.00366211,-0.0063324,0.057373,0.0735855,0.0699615
360,2,-0.00473022,-0.00236511,0.0550461,0.0746155,0.0686646
360,3,-0.00511169,-0.00247955,0.0535202,0.0717926,0.0645447
360,4,-0.00587463,0.00377655,0.053215,0.0712967,0.0618362
361,0,-0.00675201,-0.00286102,0.0524902,0.0665665,0.0601959
361,1,-0.00564575,-0.00564575,0.0523758,0.0658417,0.0618362
361,2,-0.00244141,-0.00324249,0.057106,0.0699234,0.0643539
361,3,0.00247955,-0.0082016,0.0613785,0.071373,0.0659943
361,4,0.000152588,-0.000915527,0.0590515,0.0743103,0.0716782
362,0,0.00164032,-0.00125885,0.0553894,0.0696564,0.0682068
362,1,0.00114441,-0.00411987,0.0528336,0.0658798,0.0673294
362,2,0.00465393,0.00827789,0.0561523,0.069313,0.0706863
362,3,0.0069809,0.00431061,0.0593185,0.0703812,0.073967
362,4,0.00453949,-0.00389099,0.0616837,0.0716019,0.0727081
363,0,0.00141144,-0.00202179,0.0548553,0.0676727,0.0694656
363,1,0.00156403,0.00789642,0.0549698,0.0654221,0.0645065
363,2,0.00259399,-0.0163651,0.0650024,0.0691605,0.0685883
363,3,0.00423431,-0.0352097,0.0527191,0.0709534,0.067482
363,4,0.00198364,-0.00225067,0.0533295,0.0733185,0.0737
364,0,-0.000152588,0.0190353,0.0565338,0.0707626,0.0741959
364,1,-0.0019455,0.00976563,0.0601578,0.0688934,0.0624847
364,2,-0.0025177,0.0069046,0.057106,0.0680923,0.0699615
364,3,-0.0025177,0.0149536,0.0568771,0.0677109,0.0899506
364,4,-0.00305176,-0.00507355,0.0579834,0.0731277,0.0869751
365,0,-0.00873566,-0.000495911,0.0576782,0.0699234,0.0807571
365,1,-0.00972748,-0.0102615,0.0577545,0.070343,0.079155
365,2,-0.00232697,-0.0294876,0.0579453,0.0726318,0.0708389
365,3,-0.000152588,-0.00247955,0.0596237,0.0711441,0.0651932
365,4,0.00156403,0.0242615,0.0560379,0.0757217,0.0673676
366,0,0.00396729,0.0350571,0.0502777,0.0715256,0.0712967
366,1,0.00102997,0.0514603,0.0361252,0.0711823,0.0724792
366,2,0.00087738,0.0231171,0.0649261,0.0698853,0.0761795
366,3,0.00175476,0.0229645,0.129089,0.0676346,0.0752258
366,4,0.00205994,0.00164032,0.139961,0.0656891,0.073204
367,0,-0.00217438,-0.0149918,0.10231,0.0577164,0.0631332
367,1,-0.0037384,-0.0119019,0.0489044,0.0575256,0.0588608
367,2,0.000419617,0,0.0241852,0.0701904,0.0686646
367,3,0.00507355,0.0106049,-0.017662,0.0772858,0.0734711
367,4,0.00473022,0.00682831,0.0127029,0.0879288,0.0842285
368,0,0.0025177,-0.018959,0.0427628,0.0863266,0.0835037
368,1,0.00476837,-0.030632,0.0265121,0.090332,0.0839233
368,2,0.00350952,0.032959,0.0234985,0.0849533,0.0862885
368,3,0.00587463,0.0255966,0.0450897,0.0761032,0.0814056
368,4,0.000801086,-0.018425,0.0285339,0.0684357,0.080452
369,0,0.000762939,-0.0295258,0.0183868,0.0579453,0.0706482
369,1,-0.000572205,-0.0705719,0.0618744,0.0571823,0.0651932
369,2,0.000686646,-0.0434494,0.0754166,0.0640488,0.0706863
369,3,-0.000839233,-0.00938416,0.102119,0.0643158,0.0762558
369,4,0.00160217,0.0112915,0.133934,0.0616837,0.0715637
370,0,0.00202179,0.00999451,0.160179,0.0614929,0.0667572
370,1,0.000610352,0.0246048,0.161018,0.0616455,0.0658798
370,2,0.00171661,-0.000495911,0.104752,0.0695419,0.0624466
370,3,-0.0012207,-0.0321579,0.0188446,0.0764084,0.0626755
370,4,0.00228882,-0.0422668,-0.0259399,0.0795364,0.07164
371,0,-0.00225067,-0.0318527,-0.00827789,0.0795746,0.0737762
371,1,-0.000305176,0.0105667,-0.0502014,0.0745392,0.0701523
371,2,0.000572205,0.0146103,0.00923157,0.0638199,0.0730515
371,3,0.000305176,0.0260925,0.0511932,0.0528717,0.0753021
371,4,0.00167847,0.0233078,0.100479,0.0506973,0.0710297
372,0,0.00358582,0.0294495,0.0686646,0.0557327,0.0696564
372,1,-0.00247955,0.0587082,0.0415421,0.063858,0.0640106
372,2,-0.00114441,0.0279617,0.0962448,0.0811005,0.0642776
372,3,-0.000419617,0.0212097,0.140533,0.103912,0.0640106
372,4,-0.00293732,0.00305176,0.154037,0.113983,0.0701523
373,0,-0.00457764,-0.0430679,0.098877,0.108528,0.0731659
373,1,-0.00213623,-0.0383377,0.0821304,0.11055,0.0754166
373,2,-0.00087738,-0.0161743,0.00961304,0.104218,0.0764465
373,3,-0.00179291,0.0862503,-0.0494385,0.088501,0.080452
373,4,0.000953674,0.135002,0.000724792,0.071106,0.0837708
374,0,0.00114441,0.048027,-0.0108719,0.0518417,0.079422
374,1,0.001297,0.0069809,0.01297,0.0395203,0.0747681
374,2,0.0019455,-0.0258636,0.0473022,0.0368118,0.0786972
374,3,0.00423431,-0.0457382,0.0587082,0.0387573,0.0775909
374,4,0.00202179,-0.0256348,0.0709534,0.0374222,0.0762939
375,0,-0.00179291,-0.0482941,0.134659,0.0308609,0.0661469
375,1,-0.000610352,-0.0693893,0.199623,0.0373459,0.0657654
375,2,-0.00236511,-0.0823975,0.187263,0.0407028,0.0614929
375,3,-0.00297546,-0.0592041,0.127869,0.0468445,0.054245
375,4,0,-0.015564,0.0690842,0.0579453,0.0601959
376,0,-0.00370026,-0.0355911,-0.0173187,0.0680923,0.0592041
376,1,-0.00404358,-0.0160217,-0.126305,0.0859833,0.0623703
376,2,-0.0030899,-0.0118256,-0.1017,0.10479,0.0662231
376,3,-0.00511169,-0.0143433,-0.0756454,0.135727,0.0732422
376,4,-0.00411987,-0.0151825,-0.043869,0.13092,0.0791931
377,0,-0.00198364,-0.016098,0.0775909,0.104294,0.0803375
377,1,0.000190735,0.0177002,0.123024,0.0886154,0.0821686
377,2,0.00347137,0.0544357,0.198212,0.0804138,0.0900269
377,3,0.00144958,0.0886154,0.195847,0.0671768,0.0937271
377,4,0.00171661,0.0500107,0.16098,0.0511932,0.0878906
378,0,0.000724792,-0.00926971,0.138779,0.041008,0.0829697
378,1,0.000648499,0.0133896,0.181084,0.0372314,0.0679779
378,2,-0.00152588,-0.0203705,0.02388,0.0453568,0.0547409
378,3,-0.00152588,-0.059166,-0.238953,0.071907,0.07061
378,4,0.00171661,-0.0271606,-0.0534821,0.0734711,0.0784683
379,0,0.00358582,0.0294113,0.0463867,0.0706863,0.0753784
379,1,0.00724792,0.0835037,-0.00659943,0.097084,0.0738907
379,2,0.00862122,0.0549698,-0.0178146,0.0691605,0.0766373
379,3,0.00617981,0.152473,0.0609589,0.050621,0.0681305
379,4,0.00843048,0.103416,0.144386,0.0561142,0.0736237
380,0,0.00419617,-0.0156403,0.27523,0.0460052,0.0763702
380,1,0.00461578,-0.0322342,0.181732,0.055275,0.0720596
380,2,0.0062561,-0.0504684,0.0580597,0.0606537,0.0639343
380,3,0.00350952,-0.0143051,0.14492,0.0626755,0.0545502
380,4,-0.00331879,-0.00156403,-0.00236511,0.0687027,0.0489044
381,0,-0.00720978,-0.038147,-0.170822,0.0910187,0.0528717
381,1,-0.00839233,-0.067482,-0.0684738,0.129509,0.0693893
381,2,-0.00522614,-0.0221634,0.0793076,0.109596,0.0771713
381,3,-0.0044632,-0.000686646,0.124741,0.0958252,0.0817871
381,4,-0.00297546,-0.0362396,0.030899,0.0960159,0.0728607
382,0,0.00179291,-0.0340652,0.045929,0.0886154,0.0634003
382,1,0.00312805,-0.0398636,0.0786209,0.0735092,0.0669861
382,2,0.00213623,-0.0302887,0.0985336,0.0484085,0.0721359
382,3,-0.0018692,-0.00831604,0.113907,0.0318909,0.0778961
382,4,-0.00347137,0.0101471,0.116806,0.0214386,0.0769806
383,0,-0.00156403,-0.00179291,0.0947571,0.0131607,0.0714111
383,1,-0.00350952,0.0305939,0.0882721,0.0330353,0.0722504
383,2,0.00278473,0.0655746,0.0767899,0.0390244,0.0694656
383,3,0.00259399,0.00984192,0.0608063,0.052948,0.0720215
383,4,0.00907898,-0.00492096,0.136642,0.105896,0.073204
384,0,0.00823975,0.00244141,0.119553,0.13298,0.0715256
384,1,0.0082016,0.0187302,0.118065,0.12413,0.0528336
384,2,0.00526428,0.0165939,0.172119,0.124893,0.0647354
384,3,0.00545502,-0.00221252,-0.13195,0.119286,0.080452
384,4,0.00587463,-0.00926971,-0.139313,0.0933075,0.0948334
385,0,-0.00133514,-0.00659943,-0.0937271,0.0912857,0.088768
385,1,-0.00919342,-0.0125504,-0.0342941,0.0751877,0.0796509
385,2,-0.0063324,-0.0163269,0.0491333,0.0554657,0.0906754
385,3,-0.00324249,-0.00663757,0.122147,0.0584412,0.100212
385,4,0.000686646,-0.0235748,0.173111,0.0576019,0.0775528
386,0,-0.00408173,0.00263214,0.14286,0.00659943,0.0616455
386,1,-0.00926971,0.00282288,0.0401306,0.000495911,0.0538254
386,2,-0.00854492,-0.00907898,-0.08358,0.0331497,0.0649643
386,3,-0.00324249,-0.00835419,0.0533676,0.104294,0.0755692
386,4,-0.00087738,0.0012207,0.105743,0.104523,0.0932312
387,0,-0.00423431,-0.00751495,0.0294495,0.0878525,0.085144
387,1,-0.00236511,-0.00526428,0.0331116,0.0266266,0.0740051
387,2,0.00556946,0.0148773,0.187454,0.015831,0.0814819
387,3,0.00629425,-0.000114441,0.101738,0.0795364,0.0823593
387,4,0.0056839,-0.00133514,-0.151596,0.104408,0.0782394
388,0,0.00301361,-0.00240326,-0.0734329,0.116577,0.0775146
388,1,7.63E-05,0.0134659,0.0241089,0.0304413,0.0732803
388,2,0.00347137,0.0289917,0.0870132,0.0547791,0.0705338
388,3,0.00495911,0.0390625,0.0839233,0.139236,0.0698853
388,4,-0.000991821,0.0408936,0.314484,0.139542,0.0629807
389,0,0.000534058,0.00370026,0.20504,0.0870514,0.0595093
389,1,-0.0019455,0.0031662,-0.140152,-0.0577927,0.0602722
389,2,-3.81E-05,0.0110245,-0.13443,-0.0558472,0.0690842
389,3,0.00301361,-0.00728607,0.00366211,0.0877762,0.0646591
389,4,0.00629425,-0.0107574,0.155411,0.183945,0.0561905
390,0,0.00537872,-0.0118637,0.0471878,0.130081,0.0548553
390,1,-0.00259399,-0.020256,0.0732803,0.00537872,0.0575638
390,2,-0.00350952,-0.0138855,0.075798,0.00213623,0.0679398
390,3,-0.000801086,-0.00343323,0.0744629,0.0657654,0.0708008
390,4,-0.00038147,-0.0166321,0.107727,0.0892258,0.0699997
391,0,0.000228882,-0.0170517,0.125694,0.199547,0.0612259
391,1,0.00114441,-0.0177765,0.140266,0.0814438,0.0634003
391,2,0.00465393,-0.00659943,0.175552,0.0685501,0.0775528
391,3,0.00705719,-0.00934601,0.138054,0.062561,0.0799179
391,4,-0.00148773,-0.0120544,0.0873566,0.0262833,0.072403
392,0,0.00164032,-0.00179291,0.075531,0.00804901,0.0637054
392,1,0.00213623,-0.00152588,0.0582886,0.0352478,0.0745392
392,2,0.00431061,0.00705719,-0.0256348,0.0225067,0.0759125
392,3,0.0152206,0.00637054,-0.0232697,0.106697,0.0746918
392,4,0.0140381,0.010376,0.0409317,0.136452,0.063324
393,0,0.0100327,-0.00377655,0.00789642,0.123749,0.0606537
393,1,-0.0196457,-0.00759125,0.188026,0.174828,0.0668335
393,2,-0.0373077,0.00278473,0.0906754,0.0488663,0.0837326
393,3,-0.0221634,0.0114441,0.0118256,0.0807953,0.0833511
393,4,-0.00144958,0.00873566,0.0286865,0.0591278,0.0820923
394,0,-0.0282288,0.00144958,0.09552,0.0657654,0.0757599
394,1,-0.0709152,0.000190735,-0.0278854,0.131226,0.079422
394,2,-0.0521088,0.00736237,-0.144691,0.0111389,0.0912857
394,3,0.00301361,0.00980377,-0.0346375,-0.0350189,0.0988388
394,4,0.051651,0.00896454,0.0310135,-0.0310135,0.0911713
395,0,0.0795364,0.000610352,0.0453949,0.0858307,0.0637817
395,1,0.0355911,0.000801086,0.100021,0.0997162,0.053215
395,2,-0.0226212,0.00740051,0.164566,0.0777817,0.0579453
395,3,-0.0094986,0.00904083,0.177269,0.107765,0.0678253
395,4,0.00179291,0.000190735,0.026207,0.0781631,0.0709152
396,0,-0.0313568,0.00427246,0.105705,0.0922775,0.0757599
396,1,-0.0737,0.000267029,0.018425,0.0764084,0.0738907
396,2,-0.0937653,-0.000953674,-0.118828,0.0888443,0.0852585
396,3,-0.0311661,-0.00301361,-0.0748444,0.170898,0.0842285
396,4,0.0331879,0.000915527,-0.00102997,0.207176,0.070343
397,0,0.0645065,0.010376,0.0137329,0.0841904,0.051651
397,1,0.0891495,0.0136185,-0.0296021,-0.013504,0.0364304
397,2,0.124092,0.000610352,0.0663757,-0.06073,0.0467682
397,3,0.114136,0.00198364,0.164299,0.121078,0.0777054
397,4,0.0944519,0.00728607,0.156403,0.114174,0.0907135
398,0,0.0548935,0.00747681,0.0828934,-0.0109482,0.0920105
398,1,0.0012207,-3.81E-05,0.125885,-0.0138855,0.0932693
398,2,-0.0305176,0.000152588,0.181236,0.0555038,0.080986
398,3,-0.0883865,0.00225067,0.203857,-0.00453949,0.0625229
398,4,-0.153313,-0.00133514,0.18219,0.0692749,0.0463104
399,0,-0.152016,-0.027771,0.129547,0.187645,0.0515747
399,1,-0.0650406,-0.0245285,0.08564,0.105247,0.0589752
399,2,0.00896454,-0.00621796,0.0390625,0.0456619,0.0630569
399,3,0.0445938,0.00396729,-0.0435638,0.0288773,0.0550461
399,4,0.0958252,0.00656128,-0.0628662,0.0413895,0.0741196
400,0,0.0582123,0.010376,0.0262451,0.0535202,0.0820541
400,1,-0.00835419,-0.00324249,0.07061,0.0497437,0.0885391
400,2,-0.0250626,-0.0258636,0.0806427,0.0304413,0.0880814
400,3,-0.00389099,-0.0127411,0.0713348,-0.00106812,0.0858688
400,4,0.0616455,-0.0218582,0.101013,0.046463,0.093689
401,0,0.0688553,-0.0244141,0.136948,0.0838089,0.0849915
401,1,0.029335,-0.0107193,0.101395,0.0537872,0.0839615
401,2,-0.0087738,0.00255585,0.0284958,0.170746,0.0715637
401,3,-0.00522614,0.0148773,-0.0590897,0.0474167,0.0654602
401,4,-0.0135422,0.0198364,-0.0881577,0.0605774,0.0747299
402,0,-0.0680161,0.0113678,0.047493,0.0714874,0.0909042
402,1,-0.0487137,0.0134277,0.0823593,0.0404739,0.104141
402,2,0.00385284,0.00827789,0.186462,0.0979233,0.0973129
402,3,0.0144958,-0.000724792,0.193634,0.124626,0.0849152
402,4,0.00827789,0.00926971,0.121231,0.144997,0.0785446
403,0,-0.0182343,0.00564575,0.0254059,0.258904,0.0482941
403,1,-0.0205612,0.00415802,-0.0894928,0.262527,0.0390625
403,2,-0.00816345,0.0130844,-0.0705719,0.2742,0.0463486
403,3,-0.0153351,-0.000686646,-0.0404358,0.101967,0.0669479
403,4,-0.0445938,-0.0175858,-0.103722,-0.0486374,0.0763702
404,0,-0.0619888,-0.00453949,-0.0213623,-0.0613785,0.0763702
404,1,-0.0501251,-0.00320435,-0.0135803,-0.106659,0.0649643
404,2,0.0109482,-0.00370026,0.038681,0.0591278,0.0629044
404,3,0.0405884,-0.000801086,0.199699,0.113869,0.0730896
404,4,0.0407791,0.000305176,0.0654602,-0.0495911,0.0536728
405,0,0.0485611,-0.00133514,0.0628662,0.026474,0.0404358
405,1,0.0338364,-0.0030899,0.0789261,-0.0847626,0.0543213
405,2,0.0128937,0.00213623,0.116043,0.0754547,0.0587082
405,3,0.0281143,0.0043869,0.165138,0.139999,0.0466537
405,4,0.0257111,-0.00469208,0.177002,0.11322,0.054512
406,0,0.017662,-0.015831,0.106964,0.142136,0.0922012
406,1,0.0269699,-0.0140762,0.0746918,-0.0221634,0.0986862
406,2,0.0146484,0.00888824,0.108566,-0.0764084,0.0775528
406,3,0.0105667,0.0152588,0.069809,0.0255966,0.0679398
406,4,0.0123215,0.0187683,-0.0762558,0.128593,0.060463
407,0,0.0298691,0.02491,0.0465393,0.161743,0.0629425
407,1,0.0350571,0.0535202,0.0779724,0.0902557,0.0779724
407,2,0.0279617,0.0266647,0.102119,-0.0234222,0.0871277
407,3,0.00656128,-0.00823975,0.144386,-0.0483704,0.0733566
407,4,0.000457764,0.00164032,-0.0183105,0.0382233,0.0652313
408,0,-0.000648499,-0.00267029,-0.0393677,0.0157166,0.0761414
408,1,-0.0258636,-0.0101852,0.082283,0.0325012,0.0839233
408,2,-0.0654984,-0.0346375,-0.0367737,0.0967407,0.0906754
408,3,-0.0408554,-0.0381088,0.00293732,0.134735,0.0932312
408,4,0.028801,0.0107193,0.0741959,0.312119,0.103378
409,0,0.0164032,0.00709534,0.140877,0.19619,0.0999069
409,1,-0.0268936,-0.0164032,0.106087,0.200119,0.0890732
409,2,-0.0590515,-0.0139618,0.0261688,0.211678,0.0796127
409,3,-0.087471,-0.00793457,-0.0847244,0.120163,0.0771332
409,4,-0.120926,0.00221252,-0.0381851,-0.0366211,0.0805283
410,0,-0.134087,0.00553131,0.110893,-0.0623322,0.0828552
410,1,-0.104752,-0.0019455,0.208435,-0.0862122,0.0908661
410,2,-0.0450897,-0.00759125,0.198212,-0.0635529,0.0963974
410,3,0.0087738,-0.0124359,0.245895,0.0149918,0.0911331
410,4,-0.015564,0.000610352,0.240936,0.118561,0.0674057
