Frame;Sub Frame;TA_D;FIB_D;GM_D;GL_D;SOL_D;TA_I;FIB_I;GM_I;GLI;SOL_I
1;0;-0.00495911;-0.00392914;0.0944138;0.0621414;0.0165939;0.0609589;0.0694275;0.0646591;0.100975;0.0891495
1;1;-0.00865936;-0.00701904;0.0461197;0.0617599;-0.00476837;0.0592041;0.0683975;0.0668716;0.101852;0.088501
1;2;-0.00587463;-0.00411987;0.0338745;0.0660706;0.00679016;0.0647736;0.0692368;0.068779;0.0997543;0.0889969
1;3;-0.00450134;-0.00892639;0.0151825;0.0638199;0.0301361;0.0680161;0.0769806;0.0679398;0.0998306;0.089035
1;4;-0.0025177;-0.00534058;-0.128174;0.0709915;0.0817108;0.0681686;0.0728607;0.0689316;0.100403;0.0870132
1;5;-0.00183105;0.00267029;-0.0347137;0.0849152;0.150375;0.0684357;0.0774002;0.0713348;0.10006;0.0818634
1;6;-0.0056076;-0.00240326;0.017395;0.0886536;0.183296;0.0695038;0.0718307;0.0727844;0.0985718;0.0801086
1;7;3.81E-05;-0.00370026;0.0992584;0.0854492;0.159073;0.0708771;0.0705338;0.0748444;0.102959;0.0809479
1;8;-0.00087738;0.00328064;0.137672;0.0781631;0.16983;0.0705338;0.0732422;0.074501;0.100441;0.0818634
1;9;-0.000762939;-0.00404358;0.148087;0.067215;0.149422;0.0700378;0.0745773;0.0782776;0.0961685;0.0789261
2;0;-0.00148773;-0.00591278;0.111504;0.0671768;0.0869751;0.0691223;0.078125;0.0764465;0.096817;0.0793076
2;1;-0.0037384;-0.000267029;0.0814819;0.067749;0.0250626;0.071106;0.0793839;0.0734329;0.09552;0.0801086
2;2;-0.00495911;-0.00526428;0.0249863;0.0696564;-0.000610352;0.0715256;0.08255;0.0742722;0.099678;0.0813293
2;3;-0.00160217;-0.00743866;7.63E-05;0.0717163;-0.00988007;0.0722122;0.0827026;0.072937;0.101547;0.0795746
2;4;-0.00106812;0.000991821;0.00526428;0.0786591;-0.00324249;0.0793076;0.0793839;0.0736237;0.104218;0.0858307
2;5;0.00431061;0.00411987;0.0450134;0.089035;0.0233841;0.0801468;0.0738525;0.0725174;0.103111;0.0882721
2;6;0.00297546;0.00534058;-0.00629425;0.069046;0.0614166;0.0862122;0.0753784;0.0690842;0.105782;0.0875092
2;7;0.00106812;0.0102234;0.0350952;0.0579071;0.105171;0.0853729;0.0774765;0.0717163;0.105629;0.0849533
2;8;-0.00713348;0.00923157;0.0291824;0.0649261;0.175896;0.0758743;0.0711823;0.0681686;0.100784;0.0894547
2;9;-0.000152588;-0.00320435;0.0610733;0.0625992;0.168877;0.0677109;0.0743866;0.0676346;0.098877;0.0854111
3;0;0.00469208;-0.00583649;0.0786209;0.0666809;0.117874;0.0602341;0.0720596;0.0686646;0.10006;0.0860214
3;1;0.00549316;0.00156403;0.0814819;0.0680542;0.0645447;0.059433;0.0736237;0.0713348;0.0947189;0.083046
3;2;0.00751495;0.0056839;0.100632;0.0756073;0.0135422;0.0647354;0.0793457;0.0667191;0.0920486;0.0816345
3;3;0.00724792;0.00526428;0.121307;0.0720978;-0.00385284;0.0642014;0.0803375;0.0671005;0.0969315;0.0747681
3;4;0.00198364;0.00106812;0.116005;0.0679779;0.0269699;0.059166;0.0827789;0.0694275;0.100899;0.0770187
3;5;-0.000534058;-0.00213623;0.094223;0.0674438;0.0407791;0.0586319;0.0824356;0.069313;0.0973129;0.0815582
3;6;0.000953674;0.0012207;0.0661469;0.0632095;0.0403976;0.0585175;0.080452;0.0685501;0.0969315;0.0809097
3;7;0.00530243;0;0.0576019;0.0608063;0.0467682;0.0650787;0.0754166;0.0685883;0.0968933;0.0847626
3;8;-0.0018692;0.00232697;0.0734711;0.0637054;0.050087;0.0669098;0.073204;0.0696182;0.0953674;0.0852203
3;9;0.00389099;0.00549316;-0.0129318;0.062561;0.0419617;0.0661087;0.0683212;0.0687408;0.0980377;0.0860977
4;0;0.00659943;0.000686646;0.00190735;0.07267;0.00926971;0.0695801;0.0656891;0.0730515;0.102692;0.0922394
4;1;0.00389099;-0.00541687;0.0354767;0.0737;-0.0136948;0.07267;0.0677109;0.0756073;0.0987244;0.0914001
4;2;0.00476837;-0.0043869;-0.0448227;0.0730133;0.00968933;0.078125;0.0642395;0.0740814;0.102539;0.0920486
4;3;-0.00320435;-0.00255585;0.00289917;0.0790405;0.0571823;0.0704956;0.0624084;0.0734711;0.0978851;0.0907898
4;4;0.000801086;0.00289917;0.0432587;0.0777435;0.134125;0.0662994;0.0688171;0.0728226;0.0966644;0.085907
4;5;0.00495911;-0.00431061;0.0586319;0.0676346;0.176926;0.0703812;0.0736618;0.0692749;0.100403;0.0836182
4;6;-0.0043869;0.00110626;0.0741959;0.0620651;0.172958;0.0745773;0.0745773;0.0679016;0.101204;0.0775146
4;7;-0.00564575;-0.0044632;0.127945;0.0584793;0.104103;0.0685501;0.0731277;0.0679398;0.100555;0.0777054
4;8;-0.00648499;-0.0138092;0.140266;0.0476456;0.0751495;0.0674057;0.0716782;0.0714111;0.102463;0.0780869
4;9;-0.00202179;-0.00995636;0.12043;0.0600815;0.0779343;0.0666046;0.0693893;0.0722504;0.0973511;0.0769424
5;0;-0.00183105;-0.00255585;0.0878525;0.0633621;0.0701141;0.0613403;0.0718307;0.0667572;0.096283;0.0827408
5;1;-0.000762939;0.00179291;0.0508499;0.0679016;0.0392151;0.0671768;0.0791931;0.0708008;0.099144;0.0852585
5;2;0.00114441;-0.00228882;0.00511169;0.0745773;0.0727463;0.0719452;0.0799942;0.0694656;0.0971222;0.0868988
5;3;0.00267029;0.00720978;0.0296402;0.0828552;0.0849533;0.0749588;0.0784683;0.0658798;0.0965881;0.0850677
5;4;-0.000915527;0.00789642;0.158463;0.0802994;0.0893021;0.0764847;0.076828;0.0711823;0.0940704;0.0862503
5;5;-0.00175476;0.0119781;0.133057;0.0748062;0.0582504;0.077095;0.0738907;0.0712967;0.0964355;0.090332
5;6;0.00469208;0.00957489;-0.0886917;0.0769043;0.0395966;0.0771713;0.0767899;0.0688934;0.101318;0.0832748
5;7;0.00305176;0.0140381;-0.166512;0.0774765;0.0551605;0.0793839;0.0747681;0.0719833;0.0982285;0.0828934
5;8;0.000572205;0.0043869;-0.00976562;0.0737;0.0948334;0.0711823;0.0687408;0.0698853;0.0997543;0.0826263
5;9;-0.000915527;-0.0114441;0.0670624;0.0669861;0.074501;0.0775146;0.0687027;0.0744247;0.100365;0.0812149
6;0;-0.00621796;-0.0170898;0.0577927;0.0653839;0.0745392;0.08461;0.0696182;0.0758362;0.100403;0.0860214
6;1;-0.00644684;-0.0117111;0.067215;0.0720215;0.117264;0.087738;0.07061;0.0748444;0.103722;0.0822067
6;2;0.001297;0.00118256;0.137024;0.0729752;0.145988;0.0875092;0.0767899;0.0704193;0.0993347;0.085907
6;3;0.00389099;0.0056839;0.0408173;0.0639725;0.128479;0.0736237;0.075798;0.07267;0.0984192;0.084343
6;4;0.00152588;0.0107574;-0.0442123;0.0628662;0.052681;0.0545502;0.0788498;0.0736237;0.103569;0.084343
6;5;0.00545502;0.00965118;0.0300217;0.0659943;-0.0184631;0.0368118;0.0793076;0.0751877;0.103493;0.0870895
6;6;0.00213623;0.00255585;0.0690842;0.0695038;-0.0372314;0.0289536;0.0762177;0.0749207;0.100021;0.0868607
6;7;0.000724792;0.00385284;0.0894547;0.0725174;-0.0227356;0.0365448;0.0760269;0.0733185;0.102081;0.0934601
6;8;-0.00137329;0.00301361;0.067749;0.0673676;0.0281906;0.0535965;0.0759125;0.0754929;0.0981522;0.0901031
6;9;-0.0101089;-0.00331879;0.0621414;0.066185;0.0895691;0.0576019;0.0777435;0.0759125;0.096817;0.0862503
7;0;-0.00926971;-0.00663757;0.0482178;0.0579071;0.126228;0.0622559;0.0749588;0.0712967;0.0968933;0.0885773
7;1;0.00225067;-0.00247955;0.08358;0.0610352;0.124321;0.0654984;0.0754929;0.0694656;0.0975418;0.0865173
7;2;0.00507355;0.00183105;0.104141;0.0656509;0.101013;0.0693893;0.0787354;0.0728607;0.0939178;0.0873566
7;3;0.0069046;0.00465393;0.157013;0.0660706;0.0428391;0.0794983;0.078392;0.0722885;0.0931549;0.0812912
7;4;-0.000953674;0.000762939;0.192146;0.0691605;0.0308609;0.0986481;0.0760651;0.0702667;0.0947571;0.0793076
7;5;-0.00320435;0.00293732;0.191231;0.0728989;0.0340271;0.116272;0.0779343;0.0720215;0.0953293;0.0870895
7;6;-0.00339508;-0.0012207;0.156708;0.0659561;0.02388;0.125618;0.0755692;0.0686646;0.101967;0.083847
7;7;-0.00583649;-0.000724792;0.148506;0.0706482;0.022316;0.0769424;0.0757599;0.0679779;0.0992584;0.0861359
7;8;-0.0018692;-0.0018692;-0.0156784;0.0804138;0.0355148;0.0483322;0.0731659;0.070343;0.101852;0.0834656
7;9;0.00141144;-0.0100708;-0.0978851;0.0788116;0.0448227;0.0784302;0.0767899;0.07164;0.101471;0.0849152
8;0;-0.00106812;-0.0150681;-0.0301743;0.0673294;0.0637817;0.0917435;0.0748825;0.0654602;0.0990677;0.0821686
8;1;0.00331879;-0.00854492;-0.0230789;0.0640488;0.089035;0.091362;0.0764847;0.0636673;0.0990295;0.0816727
8;2;0.00457764;-0.00522614;0.0301361;0.0707245;0.0852966;0.0679779;0.0751495;0.0667953;0.0988007;0.0800323
8;3;0.0056839;-0.00171661;0.0429153;0.0676727;0.0532913;0.0540924;0.0714493;0.0679779;0.100365;0.0786591
8;4;0.00881195;0.00320435;-0.0281143;0.0728607;0.0806046;0.057869;0.0658417;0.0683975;0.100288;0.0816727
8;5;0.00354767;-0.00141144;0.0209045;0.0761795;0.142097;0.0606155;0.071373;0.0719452;0.0955582;0.0835037
8;6;-0.000343323;0.001297;0.0684357;0.0694656;0.14679;0.0563812;0.0690842;0.0734711;0.0959396;0.0801468
8;7;0.00175476;0.00240326;0.0762558;0.0660706;0.121231;0.0606155;0.0659943;0.077858;0.0946045;0.082283
8;8;-0.00534058;0.00759125;0.110931;0.0668335;0.094223;0.0662613;0.0666046;0.0782776;0.0928879;0.0839996
8;9;-0.0118637;0.00343323;0.117035;0.0676727;0.0656509;0.0642776;0.0674057;0.0708008;0.0956726;0.0792313
9;0;-0.0101852;-0.00141144;0.0895691;0.0689316;0.0416565;0.0630951;0.0675964;0.0691986;0.0961304;0.0823212
9;1;-0.00907898;-0.000267029;0.0904846;0.064888;0.0276184;0.0666428;0.0783539;0.0687027;0.0948715;0.0835419
9;2;0;0.00347137;0.131416;0.0668716;0.00740051;0.0746536;0.0793457;0.0714874;0.0979233;0.0828552
9;3;0.00827789;0.00846863;0.141449;0.0633621;0.0105667;0.0730896;0.0746536;0.0720215;0.100288;0.0842667
9;4;0.0115967;0.00743866;0.0127029;0.0619888;0.028801;0.056839;0.0751877;0.0725555;0.103149;0.0812531
9;5;0.00900269;0.00778198;-0.0264359;0.07164;0.0562286;0.0531387;0.0798416;0.0690079;0.101357;0.085144
9;6;0.00881195;0.00602722;-0.0207901;0.0771713;0.113297;0.0553513;0.0775528;0.0688171;0.104446;0.083847
9;7;0.00606537;0.00255585;0.0378418;0.0691986;0.15892;0.03582;0.0737;0.0728989;0.101776;0.083313
9;8;0.00179291;-0.00770569;0.0125885;0.0580597;0.135002;0.0559998;0.0730133;0.0707626;0.103378;0.0872421
9;9;0.00396729;-0.0103378;0.0115585;0.0637054;0.0773621;0.0754929;0.0777817;0.07267;0.101738;0.0849915
10;0;-0.00274658;-0.00152588;0.10025;0.07164;0.0762177;0.0831223;0.0721359;0.0677109;0.104103;0.0878525
10;1;-0.000724792;0.000724792;0.149498;0.0750732;0.0575256;0.0838089;0.0711823;0.0687027;0.100174;0.0866699
10;2;-3.81E-05;0.000572205;0.0136185;0.0837326;0.00415802;0.085907;0.0730133;0.0691223;0.0998306;0.0895309
10;3;-0.000762939;0.00247955;-0.0772476;0.0838089;0.0044632;0.0875854;0.0741959;0.0660706;0.0991821;0.086174
10;4;-0.00389099;0.00415802;-0.0669098;0.0837708;0.0552368;0.0839615;0.0747681;0.0699234;0.0972748;0.0883102
10;5;-0.00484467;-0.00396729;-0.0912857;0.0875473;0.138741;0.0788879;0.0790405;0.0689697;0.0939941;0.0890732
10;6;-0.000724792;-0.0102997;-0.0657654;0.0755692;0.220108;0.0784683;0.0804901;0.0712967;0.0956726;0.0875092
10;7;-0.00366211;0.0102234;0.0468445;0.0650024;0.178833;0.076561;0.0743484;0.0725555;0.0987244;0.083313
10;8;-0.00350952;0.00671387;0.100327;0.0605011;0.10704;0.0740051;0.0717163;0.0737;0.0964355;0.0835419
10;9;-0.00118256;0.00514984;0.120926;0.0645828;0.0569534;0.0665665;0.0736618;0.0740051;0.0975418;0.0863266
11;0;-0.000953674;-0.00179291;0.127716;0.059967;0.0560379;0.0647736;0.0733185;0.0741959;0.10006;0.0875854
11;1;-0.00396729;-0.0104523;0.130806;0.0526428;0.0370026;0.0667191;0.0740051;0.0724792;0.0981903;0.0896835
11;2;-0.00408173;-0.00549316;0.116081;0.054512;-0.00396729;0.0654984;0.078125;0.074501;0.101738;0.0835419
11;3;0.0037384;-0.00701904;0.101395;0.0556183;-0.015831;0.0653839;0.080452;0.0791931;0.0983429;0.0841522
11;4;0.00354767;-0.00484467;0.143547;0.0608444;-0.0183868;0.0720978;0.0782776;0.0777817;0.0961685;0.0813293
11;5;0.00598907;-0.00385284;0.156593;0.0737;0.00801086;0.0717545;0.0800323;0.0735855;0.0944901;0.0852585
11;6;0.00610352;0.000495911;0.153618;0.0781631;0.0464249;0.0667572;0.0760269;0.0677109;0.0952911;0.0898361
11;7;0.00144958;0.00850677;0.154037;0.0749207;0.0838852;0.0592422;0.0727844;0.0653076;0.0975418;0.0854111
11;8;-0.00114441;0.010643;0.0828934;0.0712967;0.0559235;0.0587082;0.0699615;0.0693893;0.100746;0.0850677
11;9;0.00205994;0.00648499;0.019722;0.0687408;0.0191116;0.0615311;0.0715256;0.0673294;0.0980377;0.0798416
12;0;0.00225067;0.000991821;0.0177765;0.0624084;0.0333786;0.0672913;0.0714493;0.0706482;0.0995636;0.0750351
12;1;0.00301361;0.00270844;-0.000305176;0.0605774;0.0281906;0.0918579;0.0678635;0.0693893;0.0992584;0.0767899
12;2;-0.00782013;-0.0019455;-0.0504303;0.0711823;-0.00350952;0.112953;0.0718689;0.0710297;0.102005;0.0787735
12;3;-0.00659943;-0.00400543;0.0176239;0.0790787;0.0372314;0.0989532;0.070076;0.0694656;0.0984192;0.0833511
12;4;-0.00846863;-0.00682831;0.0142288;0.0645065;0.0746155;0.0905991;0.0740433;0.0704575;0.0972366;0.0876236
12;5;-0.00587463;-0.00965118;0.00209808;0.0670624;0.0765991;0.0751495;0.0785065;0.0737762;0.100632;0.0846481
12;6;-0.00766754;-0.00965118;0.0777054;0.0673294;0.162468;0.0753784;0.0818634;0.0658035;0.101433;0.085907
12;7;-0.00686646;-0.00225067;0.128479;0.060463;0.22728;0.0920868;0.0811768;0.0652695;0.0970459;0.0806808
12;8;0.00324249;0.0163651;0.102348;0.0688553;0.20134;0.0880051;0.0746536;0.0680161;0.0960159;0.0823212
12;9;0.00427246;0.0148773;0.117035;0.0830078;0.137215;0.0375366;0.0738525;0.0675201;0.0975418;0.0830841
13;0;-7.63E-05;0.0168991;0.136108;0.0844574;0.0756454;-0.0980377;0.070076;0.063858;0.100403;0.0822067
13;1;0.00289917;0.0075531;0.0999832;0.083847;0.0393295;-0.127106;0.0698853;0.0662994;0.10067;0.0827026
13;2;0.00957489;-7.63E-05;0.0354004;0.0708008;0.0163651;-0.00339508;0.0717163;0.0675964;0.101204;0.086174
13;3;0.00526428;-0.0106812;-0.0256729;0.0477982;0.000152588;0.066185;0.0743103;0.0734329;0.0993729;0.0873947
13;4;-0.00434875;-0.0112915;-0.0346756;0.0508499;-0.00976562;0.101051;0.0790405;0.0709152;0.102005;0.091362
13;5;-0.00846863;-0.0159836;-0.0214386;0.0594711;-0.012207;0.11898;0.0734711;0.0735474;0.10376;0.089035
13;6;-0.00637054;-0.0157928;-0.0806808;0.0696564;0.0271988;0.128365;0.0724411;0.0725937;0.0957489;0.0853729
13;7;-0.00354767;-0.01091;-0.0251007;0.067215;0.0731659;0.130234;0.0763321;0.0743103;0.097847;0.087738
13;8;0.00164032;0.00183105;-0.0342941;0.0727081;0.138626;0.131073;0.076561;0.0729752;0.0978088;0.0868607
13;9;0.011673;0.00713348;0.0630188;0.0796509;0.209236;0.12413;0.0772095;0.0769806;0.0946426;0.0865173
14;0;0.0138092;0.00175476;0.101089;0.0812912;0.203018;0.118141;0.0744247;0.0777817;0.0986481;0.0867844
14;1;0.0123978;0.000343323;0.051384;0.0773621;0.144577;0.100517;0.0728607;0.075798;0.09552;0.0818634
14;2;0.0186157;0.00648499;0.0738907;0.0751495;0.0779724;0.0857544;0.07164;0.0734711;0.100861;0.0820541
14;3;0.0144196;0.00358582;0.147629;0.0736618;0.015831;0.0827789;0.0712204;0.0720596;0.0990295;0.0816727
14;4;0.0104904;-0.000114441;0.0984955;0.0728607;-0.0130463;0.0737;0.0735855;0.0690842;0.0968933;0.085907
14;5;0.0120163;0.00579834;0.050621;0.0824356;-0.0310135;0.0685883;0.0777435;0.0727844;0.0969315;0.082016
14;6;-0.0025177;0.00675201;0.0783157;0.0799942;0.0247192;0.0601959;0.07164;0.0743866;0.0975037;0.0795364
14;7;-0.00915527;0.00263214;0.0872421;0.077095;0.102501;0.0582123;0.0691605;0.0694656;0.0956726;0.0833893
14;8;-0.00431061;0.00453949;0.126839;0.0661469;0.108147;0.0565338;0.0624084;0.0683594;0.0958252;0.079422
14;9;-0.00358582;0.00289917;0.139885;0.0629807;0.102081;0.0714111;0.0666428;0.0687408;0.0956726;0.080452
15;0;-0.0123978;0.00301361;0.0375366;0.0553513;0.0587845;0.0808334;0.0705719;0.0665283;0.0919342;0.0843811
15;1;-0.00930786;0.00724792;0.0682831;0.0579071;0.0286484;0.0882721;0.0782776;0.0705719;0.0948334;0.0876999
15;2;-0.00984192;0.00465393;0.080986;0.0610733;0.0178528;0.0984573;0.0827026;0.0699615;0.098114;0.0930405
15;3;-0.0150681;0.00247955;0.0828552;0.0582886;0.0214386;0.0894547;0.0868225;0.0714874;0.097847;0.0879669
15;4;-0.0130463;-0.00133514;0.0821686;0.060463;0.0302887;0.0910187;0.0841522;0.0701523;0.0997162;0.0848389
15;5;-0.0082016;0.001297;0.0675583;0.0700378;0.0513077;0.082283;0.0849533;0.075264;0.0975037;0.0834656
15;6;-0.00198364;-0.00526428;0.0659561;0.0728607;0.0580597;0.0640106;0.0836563;0.0730133;0.103836;0.0830078
15;7;0.00152588;-0.00915527;0.0589752;0.0684738;0.0354767;0.0339127;0.0833511;0.0749588;0.100098;0.0846863
15;8;-0.00682831;-0.0112534;0.0526047;0.0622559;0.0251007;0.00465393;0.079422;0.0725937;0.100403;0.0848389
15;9;-0.00160217;-0.00801086;0.0618744;0.075798;0.0330353;-0.00392914;0.0725937;0.0734329;0.101051;0.0814438
16;0;0.00263214;-0.00713348;0.0375748;0.0680161;0.0671387;0.0181198;0.0688171;0.0694656;0.0989914;0.0829315
16;1;0.00720978;0.00583649;0.0271606;0.0653076;0.0987244;0.0368118;0.0615692;0.0675201;0.100479;0.0852966
16;2;0.00747681;0.00686646;0.0389481;0.0719452;0.12558;0.0511551;0.0595093;0.0631714;0.0977325;0.084343
16;3;0.00572205;-0.000228882;0.0376129;0.0695419;0.131989;0.0696945;0.0555801;0.0633621;0.0976181;0.0860596
16;4;0.00812531;-0.00213623;0.031929;0.0743103;0.108719;0.0754166;0.062561;0.0684357;0.0971222;0.083847
16;5;0.0128937;-0.00232697;0.040741;0.0724411;0.0895691;0.0704956;0.0547791;0.0686264;0.0976944;0.0847244
16;6;0.0103378;-0.0018692;0.0426865;0.069046;0.105476;0.0684357;0.0574493;0.0667191;0.0963593;0.0878906
16;7;0.00293732;-0.000610352;0.0413513;0.0613785;0.107384;0.0788116;0.0711823;0.0701523;0.101662;0.089035
16;8;-0.00171661;-0.00183105;0.02491;0.0676727;0.0612259;0.0818634;0.0792694;0.0721359;0.104828;0.0896072
16;9;-0.00183105;-0.0063324;0.014801;0.0629425;0.0449371;0.0899887;0.0850296;0.0740814;0.103378;0.0883484
17;0;-0.00267029;-0.00701904;0.0367355;0.0518799;0.0686646;0.0899124;0.0856018;0.0740814;0.10128;0.0860977
17;1;0.00255585;0.00907898;0.0631332;0.065155;0.0871658;0.0873184;0.0866699;0.0707245;0.101509;0.0796509
17;2;0.0050354;0.0153351;0.098877;0.0780869;0.0544739;0.0802994;0.0877762;0.0681686;0.100098;0.0777817
17;3;0.00652313;0.0115585;0.152512;0.0748062;0.0299072;0.0761795;0.0833511;0.0698471;0.0991058;0.0804901
17;4;0.0105286;0.00232697;0.116577;0.0717163;0.0383759;0.0779724;0.0838089;0.0696564;0.100403;0.0839233
17;5;0.00522614;-0.00232697;-0.0138474;0.0733185;0.0492096;0.0773621;0.0818253;0.0731277;0.100479;0.0828171
17;6;0.000495911;-0.0101852;0.0299072;0.0646973;0.0605011;0.0753403;0.0769043;0.0709534;0.0999451;0.0837708
17;7;-0.00087738;-0.0094986;0.0142288;0.0595856;0.0685501;0.0736237;0.076561;0.0751877;0.102386;0.0812531
17;8;-0.010376;-0.00236511;-0.0525665;0.0658035;0.0639725;0.0681305;0.0709534;0.0750732;0.102158;0.0796127
17;9;-0.0152969;0.00350952;-0.030632;0.0680161;0.066452;0.07164;0.0694656;0.0722122;0.103073;0.0800705
18;0;-0.00545502;0.0031662;0.0216675;0.0762558;0.0747299;0.0730515;0.0733948;0.072937;0.100784;0.0828171
18;1;-0.00217438;0.000343323;0.0139618;0.083046;0.07164;0.0699615;0.0770187;0.0747299;0.0976944;0.081749
18;2;0.00473022;0.00366211;0.0416565;0.0904465;0.0958252;0.071106;0.0768661;0.0782776;0.0940704;0.0858307
18;3;0.00160217;0.01091;0.0998306;0.087204;0.161209;0.0651932;0.0767136;0.0755692;0.0964355;0.0852203
18;4;0.00442505;0.00255585;0.117569;0.0806427;0.182266;0.0606537;0.0775528;0.0724792;0.0949097;0.0838852
18;5;0.00102997;-0.00728607;0.126228;0.0736237;0.127335;0.0645065;0.0766754;0.0737;0.0925064;0.0799561
18;6;-0.00133514;0.00484467;0.134621;0.0804901;0.0607681;0.0630569;0.0782013;0.0725174;0.0954437;0.0870132
18;7;-0.00431061;0.00553131;0.0148773;0.0782394;0.00274658;0.062027;0.0749969;0.0738144;0.09552;0.0855255
18;8;-0.0156021;-0.00270844;-0.00427246;0.0615311;-0.0151825;0.0654221;0.0695038;0.070343;0.0948715;0.0827789
18;9;-0.0142288;-0.00965118;0.0682449;0.0621033;-0.0301361;0.0671387;0.0651932;0.0718689;0.0973129;0.0866699
19;0;-0.00801086;-0.00152588;0.0927353;0.069046;0.00572205;0.0746918;0.0621414;0.0746536;0.098877;0.0856781
19;1;0.000267029;0.00228882;0.099411;0.0663757;0.0932312;0.0901413;0.0678253;0.0728989;0.0967407;0.087204
19;2;0.000686646;0.00476837;0.0954056;0.0755692;0.099678;0.0758362;0.075531;0.0719833;0.0973892;0.091629
19;3;-0.00232697;-0.000839233;0.0618362;0.0721359;0.0638199;0.0580597;0.0777817;0.0687027;0.0953293;0.0862122
19;4;-0.00289917;-0.00087738;0.0518036;0.0644302;0.0997162;0.0911713;0.0786591;0.0637817;0.0930023;0.08255
19;5;-0.000114441;-0.0056839;0.0839996;0.0527191;0.0906372;0.107498;0.0722504;0.0626373;0.0971603;0.0863647
19;6;0.0063324;-0.0043869;0.116615;0.049057;0.0705719;0.102272;0.0645447;0.0658798;0.0971222;0.0879669
19;7;0.00808716;0.00133514;0.133705;0.056839;0.0940323;0.0684357;0.0709152;0.067215;0.0967026;0.0847626
19;8;0.00354767;0.0122833;0.0637436;0.0632477;0.0820923;0.0622559;0.0675201;0.0695801;0.0951004;0.0850677
19;9;0.00606537;0.00705719;0.0256348;0.0651932;0.0312042;0.113564;0.0747681;0.0712204;0.0912857;0.0844574
20;0;0.00232697;-0.000114441;0.038414;0.0652313;0.0148773;0.135994;0.072937;0.0696182;0.0957108;0.0868607
20;1;0.00366211;-0.00183105;-0.00434875;0.0597;-0.00717163;0.0649643;0.0798416;0.0676346;0.10128;0.0945282
20;2;0.00888824;-0.00144958;-0.01297;0.0590515;0.016098;0.0257111;0.0831223;0.0682068;0.100174;0.0917816
20;3;0.00774384;0.00114441;0.0360107;0.0669861;0.0814056;-0.0204468;0.083847;0.0662994;0.0964737;0.0883102
20;4;0.0069046;-0.00679016;0.0617599;0.0617218;0.0808716;-0.0062561;0.0786972;0.0676727;0.102386;0.0885773
20;5;0.00675201;-0.00617981;0.0650787;0.0653458;0.0407791;0.0153351;0.0778961;0.0701523;0.101852;0.088501
20;6;-0.00305176;-0.00736237;0.0662994;0.0702667;0.0439453;0.0349808;0.0757599;0.0720978;0.10231;0.0857544
20;7;-0.00431061;-0.0124359;0.0643539;0.0712967;0.0651169;0.0459671;0.0755692;0.0779724;0.0992584;0.0825119
20;8;-0.015564;-0.0154877;0.0526428;0.0723648;0.0894165;0.0662994;0.0769424;0.0760651;0.0967789;0.083313
20;9;-0.00396729;-0.0154114;0.0630951;0.080452;0.0899887;0.107918;0.0750732;0.0698853;0.101204;0.0793076
21;0;-0.00198364;-0.00209808;0.0646973;0.0765991;0.078392;0.125198;0.0753403;0.0696182;0.101089;0.0737762
21;1;0.00102997;0.0137329;0.0651932;0.0718689;0.0717926;0.140915;0.0818634;0.0699997;0.100899;0.0715637
21;2;0.00598907;0.0161743;0.0689697;0.0740814;0.0675964;0.160599;0.0854492;0.0681686;0.0991821;0.0736618
21;3;0.0101089;0.0226974;0.0678253;0.0762558;0.0785065;0.134621;0.0761795;0.072403;0.0997162;0.0750732
21;4;0.00141144;0.0189209;0.0655746;0.0747681;0.0852585;0.0601578;0.0754166;0.0763702;0.100327;0.0773239
21;5;-0.000114441;0.0155258;0.0601578;0.0733566;0.0860214;-0.100441;0.0638199;0.0769806;0.102386;0.0855637
21;6;-0.00125885;0.0101089;0.0558853;0.0783157;0.0801849;-0.0732422;0.0473404;0.0759506;0.100822;0.0857544
21;7;-0.00389099;-0.00377655;0.0514221;0.0777054;0.0624084;0.0238419;0.0413895;0.0737381;0.102272;0.0851822
21;8;3.81E-05;-0.00938416;0.0453949;0.0647736;0.0569153;0.0525665;0.0518417;0.073204;0.102158;0.0831985
21;9;-0.000572205;-0.00110626;0.0511169;0.0640106;0.0596619;0.071907;0.0721359;0.0718307;0.105705;0.0872421
22;0;0.00427246;0.00724792;0.0453568;0.0705719;0.0641632;0.0809479;0.0666046;0.072403;0.105438;0.0848389
22;1;0.00415802;0.00717163;0.0461578;0.0798035;0.0838089;0.114136;0.0632095;0.074234;0.102997;0.0814819
22;2;0.000648499;-0.000457764;0.0408936;0.071907;0.101204;0.150986;0.0791168;0.075531;0.101433;0.0852966
22;3;-0.00087738;-0.00480652;0.0389481;0.07164;0.0704193;0.164566;0.0847244;0.0745392;0.102348;0.0826263
22;4;0.000953674;0.00465393;0.0396729;0.0688553;0.0490189;0.153313;0.0883102;0.0686264;0.1017;0.0780487
22;5;-0.000953674;0.00190735;0.0460815;0.0681305;0.08358;0.085144;0.0870514;0.0677109;0.0975418;0.0807571
22;6;-0.000762939;-0.00984192;0.0599289;0.068779;0.0974655;0.00602722;0.0794983;0.0656128;0.0983429;0.0824356
22;7;-0.00385284;-0.0192642;0.0573349;0.0730515;0.11364;-0.0474548;0.0820541;0.0664139;0.0954819;0.0877762
22;8;-0.00911713;-0.0291061;0.0470734;0.0598526;0.149574;-0.0510788;0.0784683;0.0714111;0.0911713;0.0915527
22;9;-0.00225067;-0.0249863;0.0484085;0.0569534;0.137215;-0.0504684;0.0733185;0.0718307;0.088768;0.0940704
23;0;-0.00514984;-0.0302505;0.0541306;0.0592041;0.100937;-0.0287628;0.0778198;0.0711441;0.0944519;0.0988007
23;1;-0.00110626;-0.0500107;0.0550842;0.0576782;0.0893021;0.0265121;0.0756836;0.0698471;0.0920105;0.0989151
23;2;0.00396729;-0.0375748;0.0537872;0.0649261;0.0364304;0.0890732;0.0724411;0.0716019;0.0905991;0.092659
23;3;0.00339508;-0.00522614;0.0542068;0.0649261;0.00881195;0.182343;0.0867844;0.0687408;0.0958252;0.0898361
23;4;0.00576019;0.00545502;0.0523376;0.0696945;0.015831;0.248032;0.0918961;0.0691605;0.102348;0.0824356
23;5;0.00827789;0.018425;0.0599289;0.0791168;0.0264359;0.259895;0.0895309;0.0699997;0.101967;0.0774765
23;6;0.00850677;0.0258255;0.062561;0.0777054;0.0305939;0.263557;0.0759888;0.0645447;0.0984955;0.0724792
23;7;0.00289917;0.0124741;0.0583649;0.0740051;0.0402451;0.289993;0.0735092;0.0693512;0.0995636;0.0753784
23;8;0.00156403;0.00946045;0.0585556;0.07061;0.0371933;0.098381;0.0681686;0.0712967;0.104446;0.0806427
23;9;-0.00110626;0.0237274;0.0650024;0.0714874;0.0418472;0.025444;0.0717926;0.0659561;0.105515;0.0822449
24;0;-0.00217438;0.0451279;0.0618744;0.0656128;0.042572;-0.0660324;0.0777054;0.0650024;0.106087;0.0798035
24;1;-0.000534058;0.0512314;0.0577927;0.063858;0.0487518;-7.63E-05;0.0814056;0.068512;0.104485;0.0865173
24;2;-0.00602722;0.043602;0.0640488;0.0653076;0.0511932;0.0631332;0.084877;0.0700378;0.0999832;0.0953674
24;3;-0.00694275;0.0328827;0.0671768;0.0634384;0.0518036;0.0561523;0.0807571;0.0740433;0.102615;0.0894928
24;4;-0.00968933;0.0393295;0.07267;0.0664139;0.0578308;0.0567245;0.0769424;0.0733185;0.106735;0.0937653
24;5;-0.00701904;0.0253296;0.069809;0.0679398;0.062027;0.0455093;0.0753021;0.0719452;0.103683;0.0922012
24;6;-0.00511169;0.0165558;0.0634766;0.074234;0.0783157;0.0341797;0.0664139;0.0712585;0.097847;0.0885773
24;7;-0.00892639;-0.000572205;0.0583267;0.0748825;0.100403;0.0292206;0.0624847;0.0724411;0.0906754;0.0867462
24;8;-0.0102997;-0.0338364;0.0420761;0.0761414;0.0952148;0.0228119;0.0521851;0.0721359;0.0873184;0.0777054
24;9;0.000686646;-0.0466537;0.0417328;0.0772476;0.0743866;0.0237274;0.047226;0.0722504;0.0888443;0.0782776
25;0;0.00591278;-0.0123978;0.0488281;0.0789642;0.0694275;0.0369644;0.0548935;0.0717163;0.0915909;0.0809479
25;1;-0.000762939;-0.0284958;0.0516129;0.0825119;0.054245;0.0415421;0.0669098;0.0716782;0.0912476;0.0808334
25;2;-0.00255585;-0.059166;0.0631714;0.0698471;0.0659943;0.052681;0.0725937;0.0730515;0.0920105;0.083313
25;3;0.000991821;-0.0702286;0.0494385;0.0708771;0.0688934;0.0572205;0.0738525;0.0748062;0.094986;0.0835037
25;4;0.00434875;-0.0335312;0.0517654;0.0600433;0.0775909;0.0644684;0.0742722;0.0749588;0.0973892;0.0833893
25;5;-0.001297;-0.000495911;0.0570679;0.0570297;0.0784302;0.0626755;0.076828;0.0738525;0.0996399;0.0787354
25;6;-0.00591278;0.0037384;0.0497437;0.0671387;0.0773621;0.0626373;0.0759888;0.0709915;0.0978088;0.0817108
25;7;0.00427246;0.0163651;0.0623703;0.0627136;0.109291;0.0632858;0.0725174;0.0709915;0.0977707;0.0808716
25;8;0.00530243;0.0430679;0.0649643;0.0555801;0.122833;0.0694275;0.0733948;0.0704193;0.0977707;0.0799561
25;9;0.0114059;0.0230789;0.0612259;0.0661087;0.106888;0.071907;0.0728226;0.0714874;0.0960922;0.0831604
26;0;0.0110626;-0.00209808;0.0560379;0.0669098;0.0681305;0.0711823;0.0710297;0.0725174;0.101433;0.0775146
26;1;0.00728607;-0.0094223;0.0496292;0.0634766;0.0508499;0.0708389;0.0733566;0.0723267;0.101051;0.0782013
26;2;0.00614166;-0.0207138;0.047493;0.0665665;0.0469971;0.0729752;0.0767899;0.0728989;0.0994873;0.0777435
26;3;0.00522614;-0.0580215;0.0494003;0.0704956;0.0385284;0.072937;0.0793457;0.0673676;0.102272;0.0804901
26;4;0.00442505;-0.0144577;0.0506592;0.0683594;0.0403214;0.0766373;0.0797653;0.0680161;0.100212;0.0816727
26;5;0.00656128;-0.00278473;0.0574493;0.0748062;0.0733948;0.0798416;0.0826645;0.0725174;0.103951;0.0878525
26;6;0.0075531;-0.00335693;0.0605774;0.0802994;0.0935364;0.0828171;0.0855637;0.0741577;0.102196;0.086937
26;7;0.00377655;0.000762939;0.0583267;0.0776672;0.0788116;0.0783157;0.0870514;0.0738525;0.0990677;0.0919724
26;8;-0.00286102;0.0178909;0.0512314;0.0698471;0.0666428;0.0747681;0.0835419;0.0716782;0.102539;0.0884247
26;9;-0.0018692;0.0271988;0.0553513;0.0680542;0.0651169;0.0775528;0.0832748;0.069046;0.106125;0.0891495
27;0;-0.00198364;0.0332642;0.0583267;0.063591;0.0643158;0.075798;0.0777817;0.0682831;0.106392;0.0889969
27;1;-0.00816345;0.0485992;0.0597382;0.0572205;0.0518036;0.0778961;0.0758362;0.063324;0.0998306;0.0855255
27;2;0.000419617;0.0204468;0.0634766;0.0579834;0.0567627;0.0720978;0.0781631;0.0638962;0.0996017;0.0854874
27;3;7.63E-05;-0.000267029;0.065155;0.0592422;0.0769043;0.0611496;0.0784302;0.0653839;0.0995636;0.083313
27;4;0.000686646;-0.0239944;0.0679398;0.0632477;0.0664902;0.0588608;0.0748062;0.0704193;0.0946426;0.0895691
27;5;0.00354767;-0.0130463;0.0659943;0.0785065;0.0659943;0.0529099;0.0775909;0.0682068;0.0975418;0.08564
27;6;-0.00465393;0.0428009;0.0628662;0.087204;0.0845718;0.073204;0.0727081;0.0698471;0.100899;0.0855255
27;7;-0.0056076;0.0641251;0.0594711;0.0839233;0.0716782;0.0790405;0.0714874;0.0730515;0.102768;0.0870132
27;8;-0.00720978;0.0819016;0.0484085;0.0769424;0.0542068;0.0741196;0.0718689;0.0760269;0.0992203;0.0856018
27;9;-0.00305176;0.122871;0.0587845;0.0780869;0.0443268;0.0763702;0.0704956;0.0753403;0.0989532;0.0870895
28;0;-0.00488281;0.111046;0.0487518;0.0748062;0.0346375;0.0788498;0.0723267;0.0774002;0.099411;0.0827026
28;1;-0.000267029;0.0384521;0.0463486;0.0771713;0.0393295;0.0989532;0.0747681;0.0704193;0.100327;0.0831223
28;2;0.000152588;-0.0410461;0.0540161;0.0714111;0.0557327;0.0880814;0.0712967;0.0699615;0.0952148;0.0822449
28;3;-0.0056076;-0.120277;0.0494766;0.0611115;0.0878143;0.0743484;0.0685883;0.0708008;0.0956345;0.0788116
28;4;-0.00717163;-0.212326;0.0544357;0.0618744;0.11528;0.0790787;0.0731277;0.0719452;0.0931931;0.084877
28;5;-0.00377655;-0.12928;0.0558472;0.0612259;0.0999832;0.143318;0.0753784;0.0764084;0.0965881;0.0886154
28;6;-0.00293732;-0.0420761;0.0593567;0.0691605;0.0792313;0.20443;0.0743484;0.0756454;0.0966644;0.0870132
28;7;-0.00198364;-0.0290298;0.0523376;0.0745392;0.0614929;0.129166;0.0675964;0.0723267;0.0999451;0.0862503
28;8;-0.00514984;-0.0175858;0.0505066;0.0663376;0.0475311;-0.0237274;0.0602722;0.0725174;0.0984192;0.0841904
28;9;0.0082016;0.0291824;0.051651;0.0665283;0.0589752;-0.0362396;0.0620651;0.0708389;0.0949097;0.08564
29;0;0.00846863;0.0763321;0.0558853;0.0712967;0.0621033;0.0156784;0.0605774;0.0704575;0.0909042;0.0826263
29;1;0.00225067;-0.0094223;0.0564575;0.0684357;0.0709534;0.0445938;0.0641632;0.069809;0.0937653;0.0846863
29;2;0.00156403;-0.0956726;0.0545883;0.0688171;0.0750732;0.034523;0.0670624;0.069809;0.0923157;0.0930786
29;3;0.00347137;-0.0858688;0.0551987;0.0632858;0.0655746;0.065918;0.0692749;0.0682068;0.0967407;0.0880814
29;4;0.00362396;-0.0128174;0.0531387;0.0670242;0.0708771;0.0447083;0.067482;0.0704956;0.102921;0.092392
29;5;0.00320435;0.0177002;0.0544357;0.0715256;0.08358;0.0444412;0.078392;0.0709915;0.109177;0.0925827
29;6;0.000534058;0.0188828;0.0534058;0.0659943;0.0816727;0.0733185;0.0836182;0.0698471;0.106659;0.0874329
29;7;0.00205994;0.043335;0.0593185;0.0674438;0.0802994;0.049324;0.0865173;0.0719452;0.103683;0.0873184
29;8;-0.00270844;0.0526047;0.051918;0.0600052;0.068512;0.00339508;0.0853729;0.0751877;0.101891;0.0810242
29;9;-0.00522614;0.0360107;0.0573349;0.0675583;0.0596619;-0.0282288;0.086441;0.0735855;0.0974655;0.0755692
30;0;-0.00522614;0.0849533;0.060463;0.0699997;0.0543976;0.0606918;0.0839996;0.0732803;0.0982666;0.0687408
30;1;0.00286102;0.0842667;0.0593948;0.0674438;0.0558472;0.170135;0.0754166;0.0682068;0.0947571;0.0724792
30;2;0.000801086;0.0185776;0.0604248;0.0677872;0.0572205;0.214386;0.0720978;0.0685883;0.0932693;0.077095
30;3;-0.00171661;-0.054245;0.0587082;0.0696182;0.0597;0.18837;0.0733185;0.0669861;0.0967407;0.0780106
30;4;-0.00736237;-0.131607;0.0603867;0.069046;0.0611877;0.113297;0.0688934;0.0730133;0.0922394;0.0767899
30;5;0.000190735;-0.0775909;0.060463;0.0691605;0.0597;-0.0650024;0.0751114;0.0708008;0.0990677;0.0883484
30;6;0.00255585;-0.0510788;0.0593185;0.0707626;0.0594711;-0.0579071;0.0864029;0.0705338;0.101051;0.0973129
30;7;0.0111389;-0.0761032;0.0556946;0.0692749;0.0699234;0.0296402;0.0848007;0.0734711;0.103951;0.0859833
30;8;0.00854492;-0.0135422;0.053978;0.0717163;0.0744629;0.0638962;0.0812149;0.0723648;0.104561;0.0666046
30;9;0.00499725;0.0495911;0.0487137;0.0732422;0.0692368;0.0779343;0.0756836;0.0686264;0.101089;0.0588226
31;0;0.00537872;0.0959015;0.0522614;0.0681305;0.0688553;0.0823975;0.072403;0.0732803;0.0954819;0.0693512
31;1;0.00274658;0.127029;0.0521469;0.0679779;0.0692368;0.099411;0.072403;0.07061;0.0953674;0.0759125
31;2;-0.00125885;0.124664;0.0606537;0.0671387;0.0709152;0.110359;0.0799942;0.0652695;0.0909424;0.0833893
31;3;0.00152588;0.10128;0.0590134;0.0637817;0.0741196;0.117073;0.0773621;0.0675964;0.0968552;0.0901413
31;4;0.00484467;0.0352859;0.0587845;0.0667191;0.0728226;0.127678;0.0690842;0.0662613;0.0946808;0.0928879
31;5;0.00160217;0.00717163;0.0570679;0.0701904;0.0770569;0.120926;0.0585175;0.065155;0.0944901;0.0937653
31;6;0.00431061;-0.0291824;0.0524902;0.0734329;0.0706863;0.113602;0.0514603;0.0707245;0.0993347;0.0961685
31;7;0.00679016;-0.0532532;0.0555801;0.0730896;0.0670242;0.114059;0.0603104;0.0751114;0.098114;0.0941849
31;8;-0.000801086;-0.0211716;0.0518417;0.0706863;0.0714493;0.108719;0.0783539;0.0784302;0.0987625;0.086174
31;9;-0.00659943;-0.0469589;0.0585175;0.0746918;0.0788498;0.0606918;0.0772095;0.0771332;0.100403;0.0885391
32;0;-0.00476837;-0.0577927;0.0592422;0.0728607;0.0704193;-0.0737;0.0803757;0.0762177;0.0964737;0.0899887
32;1;-0.00312805;-0.0535583;0.0548935;0.0717545;0.0679016;-0.0332642;0.0818253;0.0710297;0.0978851;0.0972366
32;2;-0.00267029;-0.0497818;0.0584412;0.0752258;0.0656128;0.0543213;0.0800323;0.0676727;0.0937271;0.0932312
32;3;-0.00347137;-0.0238419;0.0573349;0.0706863;0.0743866;0.0653458;0.0761795;0.071907;0.0959396;0.0915146
32;4;-0.00823975;0.0148773;0.0540924;0.0657654;0.0770569;0.0756454;0.0730133;0.0717163;0.100937;0.0939178
32;5;-0.00587463;0.0589752;0.0493622;0.0686646;0.065155;0.0863647;0.0795746;0.0723648;0.107956;0.0966263
32;6;-0.00278473;0.112381;0.0525284;0.0670242;0.0555038;0.0860596;0.0779724;0.0719833;0.110359;0.102997
32;7;-0.000305176;0.129433;0.0557327;0.0671005;0.0516129;0.0873947;0.079689;0.0681686;0.109253;0.0882339
32;8;-0.0025177;0.100441;0.0573349;0.0626373;0.055275;0.0877762;0.0663757;0.0668716;0.102005;0.0636292
32;9;-0.000686646;0.0411606;0.0502777;0.0660324;0.0568008;0.086441;0.0691223;0.073204;0.102158;0.0513077
33;0;-0.000572205;0.0274658;0.0539398;0.064888;0.0729752;0.0831985;0.0690842;0.0711823;0.103607;0.0642014
33;1;-0.00526428;0.0366974;0.0625992;0.0642014;0.0850677;0.0787354;0.07267;0.07061;0.101776;0.0746918
33;2;-0.00473022;-0.00335693;0.0631714;0.0679016;0.0749969;0.0760269;0.0754929;0.0704575;0.096817;0.0806808
33;3;-0.00228882;-0.159492;0.0591278;0.0608063;0.0764847;0.07061;0.0786972;0.0671768;0.0980377;0.0912094
33;4;-0.00164032;-0.289917;0.0611496;0.0667572;0.0753784;0.0666046;0.0802612;0.0698853;0.0979614;0.0875473
33;5;0.0044632;-0.142441;0.0625992;0.0712967;0.0727844;0.067482;0.0804901;0.0695038;0.0958633;0.0853348
33;6;0.00362396;-0.0960541;0.0627899;0.0728226;0.068512;0.0654984;0.0799942;0.0698853;0.0981903;0.0802231
33;7;-0.00720978;-0.0987244;0.0598145;0.0754547;0.0716019;0.0677109;0.0794983;0.0715637;0.10067;0.0815201
33;8;-0.00812531;-0.0854111;0.0451279;0.0719833;0.0717926;0.0638199;0.0747681;0.0696945;0.0980759;0.0828934
33;9;0.00038147;0.0353241;0.0474167;0.0821686;0.0815582;0.062027;0.0724411;0.0740433;0.0937653;0.084343
34;0;0.00274658;0.0206757;0.055542;0.0712967;0.0650406;0.0650024;0.0687408;0.0717926;0.0951385;0.0872803
34;1;0.00408173;0.0312805;0.0544739;0.0691605;0.0370407;0.0603485;0.0718689;0.0693893;0.0978851;0.0967407
34;2;0.0030899;0.0447845;0.0525284;0.0598907;0.0391388;0.0631332;0.0738525;0.0712204;0.0922012;0.0989151
34;3;0.0082016;0.0492477;0.0590134;0.0642395;0.019722;0.0666428;0.0714874;0.0724411;0.0931168;0.0834274
34;4;0.00679016;0.0793076;0.0593185;0.0748825;0.0442505;0.065918;0.0778961;0.0698853;0.0931168;0.0756454
34;5;0.0103378;0.0374222;0.0595474;0.0751495;0.096817;0.063858;0.0760651;0.0705338;0.0937653;0.0807953
34;6;0.00511169;-0.0397873;0.0592804;0.0722504;0.0836182;0.0596237;0.0685501;0.0720596;0.0947189;0.0702286
34;7;0.00389099;0.00297546;0.0564575;0.0699234;0.0648117;0.0587463;0.0683975;0.0715256;0.0928116;0.0823975
34;8;0.0031662;0.0485611;0.0530243;0.0556946;0.0844193;0.0577927;0.0767517;0.07164;0.0989532;0.0921631
34;9;0.00530243;0.0634384;0.0498962;0.057106;0.109291;0.0595093;0.0778961;0.0729752;0.102539;0.0889587
35;0;-0.00087738;0.0886154;0.0531769;0.0656509;0.106277;0.0584793;0.083313;0.0706482;0.106964;0.0979996
35;1;-0.0044632;0.0641632;0.0574875;0.0738525;0.0829315;0.0634766;0.0710678;0.0710678;0.0976181;0.0824738
35;2;-0.00419617;0.0348663;0.0514603;0.0723267;0.0662994;0.0738144;0.065155;0.0671387;0.0864792;0.0826645
35;3;0.00328064;0.0333023;0.0514603;0.0746155;0.0569534;0.0758743;0.0737;0.0709534;0.09655;0.084343
35;4;0.00339508;0.00961304;0.0561523;0.0761795;0.0556946;0.0730133;0.0794601;0.0751114;0.101852;0.0788116
35;5;0.00400543;-0.00217438;0.0576782;0.0763702;0.0543976;0.0782013;0.0785446;0.0810242;0.104103;0.0878143
35;6;0.00297546;-0.00038147;0.0555801;0.0736237;0.0588608;0.0835037;0.0751114;0.0805664;0.103531;0.0980377
35;7;0.00278473;0.00598907;0.0564957;0.0703049;0.0603867;0.0879288;0.0765228;0.0727081;0.106621;0.105324
35;8;-0.00148773;0.00904083;0.0523376;0.0676727;0.060997;0.0789261;0.0630951;0.0728226;0.098877;0.100212
35;9;0.00587463;0.0114441;0.0506973;0.0653076;0.0496292;0.0659561;0.0672913;0.0735092;0.100098;0.0741959
36;0;0.011673;-0.0169373;0.0559998;0.0692368;0.0516129;0.0597763;0.0680923;0.07267;0.103874;0.0566101
36;1;0.00164032;0.0265121;0.0497055;0.0704193;0.0518036;0.0602722;0.0693512;0.073204;0.100784;0.0640869
36;2;-0.00457764;0.015564;0.051651;0.0724792;0.0527573;0.0651169;0.0712967;0.0738907;0.0984955;0.0711823
36;3;-0.0087738;0.0241852;0.0579453;0.0741959;0.09655;0.0712967;0.0730133;0.069313;0.0947952;0.0822067
36;4;-0.00934601;0.0257111;0.0678635;0.0655365;0.107956;0.0771713;0.0778961;0.0655746;0.0972748;0.0967026
36;5;-0.0056076;-0.0391006;0.0654984;0.0682068;0.098381;0.0835419;0.0791168;0.0647354;0.0973129;0.118675
36;6;0.00297546;-0.0772476;0.0634384;0.0625229;0.0804901;0.0812149;0.075531;0.0663757;0.0943375;0.0978851
36;7;0.00339508;-0.105858;0.0579834;0.0618744;0.0707626;0.0750351;0.0802994;0.0650406;0.0998306;0.0487137
36;8;-0.0069046;-0.120087;0.053215;0.0612259;0.0669098;0.0735474;0.0773621;0.0742722;0.0966644;0.0323868
36;9;-0.00411987;-0.0505829;0.0480652;0.0605011;0.0564957;0.073204;0.0777435;0.0761032;0.100937;0.074234
37;0;-0.00141144;-0.0175858;0.0511932;0.0644684;0.0730133;0.068779;0.0780869;0.0682449;0.0978088;0.0962067
37;1;0.00141144;0.00461578;0.0523758;0.0650787;0.0751495;0.0703049;0.0778198;0.0705719;0.094986;0.0923157
37;2;-0.00671387;-0.0494766;0.0535965;0.0597382;0.0592804;0.0678635;0.0700378;0.0684357;0.0924683;0.0894928
37;3;-0.00450134;-0.0354767;0.0505066;0.0636673;0.0540161;0.0631714;0.0672913;0.0699997;0.0973511;0.0893021
37;4;-0.00518799;0.00530243;0.0572205;0.0668716;0.0527954;0.0647736;0.0710297;0.0666046;0.0954056;0.0940323
37;5;-0.00102997;0.019722;0.0616074;0.0730515;0.049057;0.0644684;0.0755692;0.0659561;0.0993347;0.0927353
37;6;-0.00259399;0.0242996;0.0584793;0.0676346;0.0465775;0.0686264;0.0775146;0.0666809;0.100441;0.0902939
37;7;-0.00915527;-0.020752;0.0645065;0.0684357;0.0549698;0.0695038;0.0754929;0.0680542;0.103035;0.0817108
37;8;-0.0122833;-0.0656891;0.0556946;0.0652313;0.0647736;0.0723648;0.0676346;0.0734711;0.102844;0.0782394
37;9;-0.00553131;-0.0255966;0.0567245;0.0719452;0.0854492;0.0667953;0.0739288;0.0733566;0.103035;0.0825882
38;0;3.81E-05;0.0351334;0.0592041;0.0783157;0.0784683;0.0605774;0.0768661;0.0759125;0.099678;0.0811768
38;1;0.0012207;0.0502396;0.0569534;0.0751495;0.0714493;0.0602341;0.0755692;0.07164;0.0981522;0.087471
38;2;0.00518799;0.0696945;0.0597763;0.0754929;0.071907;0.0662613;0.0813293;0.0644302;0.0982666;0.094223
38;3;0.00499725;0.0818253;0.0570679;0.0751495;0.0744629;0.0762177;0.0800705;0.0622559;0.0995255;0.0927353
38;4;0.00507355;0.0775146;0.0566483;0.078125;0.0735092;0.0790405;0.0789261;0.0641251;0.10067;0.0917053
38;5;0.00888824;0.0693512;0.0642776;0.0774765;0.0678635;0.0816345;0.0754929;0.0688934;0.100555;0.08564
38;6;0.013504;0.0593567;0.0548172;0.0794983;0.0677872;0.0714493;0.0714493;0.0703812;0.09758;0.0856018
38;7;0.0134277;0.0541306;0.0511551;0.0773621;0.0664139;0.0650406;0.0707626;0.071106;0.0959015;0.0933075
38;8;-3.81E-05;0.0431442;0.0470734;0.0732422;0.0709915;0.0635529;0.0675964;0.0757599;0.102234;0.0990295
38;9;-0.00236511;0.0265121;0.047493;0.068512;0.0681686;0.0727081;0.0729752;0.0803375;0.102844;0.0952148
39;0;-0.00217438;0.00244141;0.050087;0.0717926;0.0702286;0.0801468;0.0780869;0.0799942;0.0941467;0.0812912
39;1;-0.00289917;-0.015564;0.0481796;0.0661469;0.0662231;0.0796127;0.0764084;0.0776672;0.0904465;0.0965118
39;2;-0.00583649;-0.0229645;0.0492096;0.0663757;0.0662994;0.0808716;0.0793076;0.0764465;0.100517;0.0881577
39;3;-0.00408173;-0.0272751;0.0514984;0.0655746;0.0635529;0.0671005;0.0716019;0.0741196;0.114021;0.0669479
39;4;0.00247955;-0.0287628;0.0480652;0.0637054;0.0618744;0.0630951;0.0592041;0.0772095;0.109406;0.0462723
39;5;0.00629425;-0.0329971;0.0557709;0.0657272;0.0620651;0.0853729;0.062561;0.0756454;0.0877762;0.0584412
39;6;0.00740051;-0.032692;0.0595093;0.0666809;0.0657272;0.0895309;0.0717545;0.0747681;0.0939178;0.0579071
39;7;0.00564575;-0.0286865;0.055542;0.0680161;0.0701904;0.0812531;0.0758743;0.0741959;0.10067;0.082016
39;8;-0.000839233;-0.0229645;0.0528717;0.0671005;0.0748062;0.0699997;0.0691605;0.0698471;0.0982666;0.0897217
39;9;0.00305176;-0.0274277;0.0542068;0.0657654;0.0720978;0.0450897;0.0527191;0.0674438;0.0921631;0.0998688
40;0;0.00259399;-0.0244141;0.0553131;0.0630951;0.0698853;0.0378418;0.0724411;0.0635529;0.0931931;0.0968933
40;1;0.00087738;-0.0203323;0.0567627;0.0601196;0.0670624;0.045929;0.0982285;0.0673676;0.0990295;0.0864029
40;2;0.00476837;-0.0165939;0.0583649;0.0636292;0.0691223;0.0555038;0.0989914;0.0692749;0.115891;0.0835037
40;3;0.00488281;-0.0156403;0.0587082;0.0650406;0.0686264;0.0358582;0.0937653;0.0664902;0.0939178;0.0810242
40;4;0.00488281;-0.0150299;0.0611877;0.0611496;0.0661087;0.0540924;0.0930023;0.0660324;0.0896072;0.111427
40;5;0.00621796;-0.0149536;0.0645447;0.0665283;0.0695419;0.0681686;0.0813675;0.0600052;0.100174;0.123634
40;6;0.00469208;-0.0139236;0.0617599;0.0682831;0.0681686;0.0851822;0.0683975;0.0668716;0.097847;0.0832367
40;7;-0.0019455;-0.00926971;0.0643158;0.0659561;0.0714493;0.0814056;0.0564957;0.0703049;0.0928879;0.0282669
40;8;-0.00953674;-0.00484467;0.0556183;0.0681305;0.0786209;0.0803375;0.0581741;0.0706863;0.102348;0.00148773
40;9;-0.00789642;-0.00133514;0.0557327;0.0744629;0.077095;0.0878143;0.0780869;0.0657654;0.0997543;0.0519562
41;0;-0.0069046;0.00171661;0.0569916;0.0709915;0.0736618;0.09655;0.0828171;0.0593185;0.102386;0.102425
41;1;-0.00648499;0.0062561;0.0546265;0.0719452;0.0679398;0.104332;0.0820541;0.0694656;0.0995255;0.104218
41;2;-0.00434875;0.00556946;0.0628662;0.0758743;0.0665283;0.0756454;0.0693512;0.0654221;0.0965118;0.106277
41;3;-0.00518799;0.0128937;0.0621033;0.0776672;0.066452;0.0293732;0.0653458;0.0703049;0.0867462;0.132027
41;4;-0.00350952;0.0121689;0.0613403;0.076561;0.0646973;0.0623322;0.0661087;0.0800323;0.0944901;0.115471
41;5;-0.00358582;0.0104141;0.0593948;0.0767136;0.0641632;0.0849152;0.0755692;0.0850296;0.120468;0.0833893
41;6;-0.00247955;0.0128555;0.0613403;0.0780869;0.0643921;0.0969696;0.0612259;0.0845337;0.103798;0.0663376
41;7;-0.00244141;0.0117111;0.0589752;0.078125;0.0682449;0.100021;0.0605774;0.0701904;0.0878525;0.0815201
41;8;-0.00431061;0.0105286;0.0485611;0.079422;0.0701141;0.0815582;0.116577;0.0730515;0.115852;0.104103
41;9;-0.00461578;0.00782013;0.0470352;0.0790405;0.0690079;0.0415039;0.0933456;0.0712967;0.112305;0.106964
42;0;-0.00522614;0.00984192;0.0481415;0.08255;0.0639343;0.00892639;0.0397491;0.0734329;0.0819778;0.111275
42;1;-0.00114441;0.00659943;0.0542068;0.0865555;0.067749;0.0227737;0.0565338;0.0760269;0.0793457;0.101471
42;2;0.000190735;0.00331879;0.0579453;0.0904083;0.0656128;0.0519562;0.0599289;0.0737;0.0946808;0.104218
42;3;0.0019455;0.00152588;0.056572;0.088501;0.0641632;0.0630569;0.071373;0.069809;0.0989532;0.0604248
42;4;0.00606537;0.00362396;0.0541687;0.0827408;0.0683975;0.0813675;0.0727463;0.0751877;0.09758;0.0094223
42;5;0.00839233;0.00232697;0.0590897;0.0830078;0.065155;0.089798;0.0677109;0.0695419;0.0947952;0.07164
42;6;0.00812531;-0.00221252;0.0563431;0.0807571;0.0631332;0.0958633;0.0789261;0.0659561;0.098114;0.0879288
42;7;0.00675201;-0.00038147;0.0532532;0.0811768;0.0705338;0.0920486;0.0878906;0.0662231;0.112762;0.0752258
42;8;0.00499725;0.00396729;0.0490189;0.0770569;0.0737762;0.0878906;0.0819397;0.0714874;0.101166;0.0907135
42;9;0.00263214;0.0056839;0.0455856;0.0725937;0.0718307;0.0879669;0.0811005;0.0776672;0.103722;0.0965118
43;0;0.00595093;0.00270844;0.0457764;0.0764084;0.0660324;0.0821686;0.0766754;0.0678635;0.0999832;0.116577
43;1;0.00709534;0.00152588;0.0521088;0.0694656;0.063858;0.079689;0.0709534;0.0636673;0.0924301;0.126305
43;2;0.00862122;-0.00175476;0.0554657;0.0652313;0.0647736;0.0786972;0.0771332;0.0704956;0.0958633;0.0899887
43;3;0.000839233;-0.0031662;0.0548172;0.0576782;0.064888;0.0740814;0.0800323;0.0695038;0.105247;0.0704193
43;4;-0.00514984;0.000457764;0.0544739;0.0483322;0.0645447;0.0730133;0.087738;0.0792694;0.0980377;0.0376511
43;5;-0.00106812;0.000305176;0.05867;0.0372314;0.0645447;0.0715637;0.0898743;0.0776672;0.105515;0.0477219
43;6;0.000305176;0.000762939;0.0540543;0.0246429;0.0628662;0.0704956;0.079155;0.0669861;0.102921;0.0797272
43;7;0;-0.000114441;0.0554276;0.0162506;0.0628281;0.0716019;0.0613022;0.0723648;0.110512;0.0697327
43;8;-0.00411987;0.0030899;0.0612259;0.00770569;0.0701904;0.0653458;0.0605392;0.0692749;0.105896;0.0523758
43;9;-0.00686646;0.00102997;0.0580597;0.00274658;0.0728226;0.0643158;0.062294;0.0716019;0.0946426;0.0775528
44;0;-0.00617981;-3.81E-05;0.058403;-0.00389099;0.0679779;0.0629425;0.0678253;0.0738525;0.0913239;0.098381
44;1;-0.00911713;-0.00240326;0.0630951;-0.00164032;0.067215;0.0650406;0.0823593;0.0671005;0.0973511;0.125084
44;2;-0.0037384;-0.00190735;0.0619125;0.00423431;0.0637436;0.0664139;0.0848007;0.0666809;0.0994492;0.136299
44;3;-0.00495911;-0.00331879;0.0606155;0.0082016;0.0608063;0.0595856;0.0793839;0.0681686;0.0985718;0.123062
44;4;-0.00526428;-0.00110626;0.0617599;0.0143814;0.059166;0.0614929;0.0802612;0.0655746;0.101776;0.0610352
44;5;0.00152588;0.000915527;0.0603485;0.0281525;0.0639725;0.0606918;0.0829315;0.0665283;0.0957108;0.0185394
44;6;-3.81E-05;-0.0019455;0.0601959;0.038414;0.0713348;0.0652313;0.080452;0.0650787;0.0928879;0.051384
44;7;-0.00175476;-0.00434875;0.0615692;0.0545502;0.0774002;0.0637054;0.07061;0.0712967;0.0932693;0.079689
44;8;-0.00278473;-3.81E-05;0.0492096;0.0601959;0.0825882;0.060997;0.0619125;0.0710678;0.0979996;0.0918961
44;9;-0.000953674;-0.000457764;0.0507736;0.0791931;0.0786209;0.0625229;0.0915909;0.0695038;0.108986;0.103989
45;0;0.00247955;-0.00102997;0.0562286;0.0987625;0.0736237;0.0639725;0.0691605;0.0668335;0.0997925;0.0942993
45;1;-0.00499725;-0.00118256;0.0561905;0.107155;0.0727081;0.0526047;0.0621414;0.0624466;0.0884628;0.09758
45;2;-0.000114441;-0.00331879;0.052948;0.126724;0.0720596;0.0583267;0.0797272;0.065155;0.0863266;0.0805664
45;3;0.00370026;-0.0043869;0.0549698;0.138969;0.0709915;0.0603104;0.074501;0.0679398;0.0946426;0.105667
45;4;0.00579834;-0.00328064;0.0550079;0.149765;0.069046;0.0645065;0.0690842;0.0670624;0.099144;0.118561
45;5;0.0056076;0.000648499;0.0577164;0.158348;0.0661087;0.0677872;0.0679398;0.0699997;0.106697;0.104828
45;6;0.00450134;0.00198364;0.055542;0.161743;0.0642776;0.0595856;0.0640106;0.0793839;0.102959;0.0918961
45;7;0.0031662;0.00087738;0.0574875;0.158348;0.0603867;0.0601959;0.066452;0.0704956;0.105324;0.0881195
45;8;-0.00324249;0.00656128;0.050621;0.170708;0.0709534;0.0658798;0.0660706;0.0917053;0.108871;0.0830078
45;9;-0.00492096;0.00545502;0.0484848;0.195656;0.0718307;0.0654221;0.0592422;0.104904;0.0956345;0.0859451
46;0;0.001297;0.000953674;0.0546265;0.165901;0.0707626;0.0812149;0.0734329;0.0917053;0.0976562;0.0695038
46;1;0.000343323;0.00408173;0.0572586;0.12043;0.0636673;0.0842285;0.0899506;0.0834656;0.110397;0.0805283
46;2;0.00366211;-7.63E-05;0.0627899;0.0972748;0.0604248;0.103378;0.0794601;0.0666046;0.0976944;0.0989151
46;3;0.00236511;-0.00537872;0.0628281;0.0866699;0.0593567;0.135307;0.0746536;0.0600433;0.0815201;0.0854111
46;4;0.00522614;-0.00644684;0.0592041;0.0805283;0.0598907;0.155563;0.0687408;0.0431824;0.0827026;0.0627136
46;5;0.0114822;-0.00282288;0.0580597;0.0737;0.0622177;0.127335;0.088768;0.0371552;0.111389;0.0791168
46;6;0.00812531;-0.00247955;0.058403;0.0714874;0.0659943;0.0723267;0.0919342;0.0533295;0.111046;0.134048
46;7;0.0019455;-0.000343323;0.0570679;0.0614166;0.0696182;-0.0037384;0.0758362;0.0702667;0.0947189;0.144577
46;8;-0.0037384;-0.0012207;0.0482178;0.0525665;0.0701141;0.050087;0.0401306;0.0741196;0.0915909;0.0679016
46;9;-0.00423431;-0.00156403;0.0491333;0.0465012;0.0702667;0.0414658;0.0703049;0.0851059;0.0988388;-0.0398636
47;0;0.00556946;-0.00217438;0.0439835;0.0395584;0.0700378;0.0234222;0.0934601;0.0762177;0.108757;0.0268555
47;1;0.00305176;0.000991821;0.0455475;0.0317383;0.0704956;0.0226593;0.0575638;0.0855255;0.0878525;0.0453568
47;2;0.000457764;-0.000495911;0.0495911;0.030899;0.0691223;0.0278091;0.0695419;0.0868225;0.0809479;0.058136
47;3;-0.0025177;-0.00347137;0.0534439;0.0242233;0.0656509;0.043602;0.0879669;0.0775146;0.0931549;0.0784683
47;4;0.000419617;0.00289917;0.0616455;0.0190353;0.0668335;0.0577164;0.0979996;0.0675964;0.117226;0.0785828
47;5;0.00274658;-0.000228882;0.0604248;0.0181198;0.0650787;0.0775909;0.101204;0.0664139;0.117798;0.0959015
47;6;0.00301361;-0.00209808;0.0646591;0.0175858;0.0619125;0.0831985;0.0617599;0.0808334;0.11219;0.107918
47;7;0.00270844;0.000495911;0.060997;0.00984192;0.0657654;0.0912476;0.052948;0.0819778;0.100365;0.119705
47;8;0.00160217;0.00343323;0.0598145;0.0131226;0.0744629;0.0873947;0.0466919;0.0690842;0.0885391;0.122414
47;9;0.00133514;0.00705719;0.0583267;0.0168228;0.0727463;0.0825882;0.0325775;0.0556946;0.0632858;0.120163
48;0;0.000801086;0.00339508;0.05867;0.0225449;0.0688553;0.0834656;0.0645065;0.0640106;0.0803375;0.0688171
48;1;-0.00427246;0.00106812;0.0543594;0.0276947;0.0695038;0.0855255;0.100441;0.0716019;0.0942612;-0.0138855
48;2;-0.00335693;-3.81E-05;0.0528717;0.0364685;0.064621;0.0794983;0.0868988;0.0716019;0.101738;-0.0180817
48;3;-0.00141144;0.000534058;0.0522232;0.0404739;0.0699234;0.0752258;0.0580215;0.0776291;0.100822;0.0614166
48;4;-0.00762939;0.00240326;0.0556564;0.0492477;0.0667572;0.0790787;0.0664902;0.0738144;0.102692;0.0995255
48;5;-0.00587463;0.00278473;0.0567627;0.0597;0.0601196;0.0820923;0.0891495;0.0726318;0.10025;0.117798
48;6;-0.00450134;0.00385284;0.0613022;0.0637054;0.0660706;0.076828;0.0738525;0.0744629;0.10704;0.104141
48;7;0.000724792;0.00118256;0.0617981;0.0685501;0.0696564;0.0785446;0.0595856;0.0721741;0.105934;0.103798
48;8;-0.00629425;0.000762939;0.055275;0.0666428;0.0730515;0.0774384;0.102615;0.0684738;0.0960541;0.119057
48;9;-0.00492096;-0.0012207;0.0477982;0.0702667;0.0723648;0.0753403;0.0956726;0.0597763;0.103493;0.122948
49;0;-0.00343323;-0.000267029;0.0509644;0.0816345;0.0651169;0.0686264;0.101891;0.0628662;0.104256;0.149612
49;1;-3.81E-05;0.000572205;0.0559235;0.0875854;0.0653839;0.0685501;0.0976944;0.0626755;0.1054;0.158348
49;2;-0.00183105;-0.00156403;0.0595093;0.0907898;0.0655365;0.0724792;0.0867081;0.0639725;0.110703;0.143204
49;3;-0.000534058;-0.00137329;0.0585938;0.0909805;0.0656891;0.0673676;0.0859451;0.0646591;0.108452;0.124359
49;4;0.00217438;-0.000648499;0.0655746;0.0899887;0.0686646;0.0654602;0.0813293;0.0695419;0.0990677;0.105972
49;5;0.00881195;0.0030899;0.0636292;0.0918961;0.0686264;0.0693893;0.082016;0.0703812;0.0971222;0.0646973
49;6;0.00225067;0.00301361;0.0617599;0.0876617;0.0701141;0.0709152;0.105019;0.0777817;0.105896;0.0270844
49;7;-0.000534058;0.000991821;0.0550842;0.0880814;0.0687408;0.0652695;0.0814438;0.0862503;0.105057;0.050621
49;8;0.00156403;0.00305176;0.0561142;0.0905609;0.0736618;0.063858;0.0479889;0.088501;0.0918198;0.0689697
49;9;-0.00415802;0.00293732;0.0539398;0.0887299;0.0743866;0.0598526;0.056572;0.0835419;0.09655;0.0876617
50;0;0.00160217;-0.00175476;0.0545502;0.0855255;0.0749969;0.0590134;0.0599289;0.0821686;0.0972748;0.0795746
50;1;0.00492096;-0.00396729;0.0502396;0.0843811;0.0696945;0.0609207;0.0588608;0.0593185;0.10498;0.0523758
50;2;-0.00404358;-0.00328064;0.0489426;0.0881577;0.0697327;0.0666809;0.0633621;0.0352859;0.101471;0.0622559
50;3;-0.00476837;-0.0012207;0.0476074;0.0847244;0.0706482;0.0654984;0.0623703;0.0424194;0.093956;0.103798
50;4;0.00087738;-0.00480652;0.0514603;0.080452;0.0659943;0.0689697;0.0655746;0.0727081;0.0949097;0.168228
50;5;0.00366211;-0.00598907;0.0574875;0.0781631;0.0573349;0.0704575;0.0685501;0.0745773;0.0959396;0.144081
50;6;0.00492096;0;0.0600052;0.0816345;0.060997;0.0645447;0.0720596;0.0792694;0.0968933;0.0624466
50;7;0.00526428;0.0012207;0.0569534;0.0790024;0.0657654;0.0616455;0.0699615;0.102158;0.095253;-0.00923157
50;8;0.00255585;0.000190735;0.0511169;0.0723267;0.0684357;0.0632477;0.0619888;0.107536;0.0934982;0.0161743
50;9;-0.00038147;0.000495911;0.0518799;0.0727463;0.071106;0.0683594;0.0634384;0.0773239;0.0995636;0.0662613
51;0;0.00213623;-0.000915527;0.055809;0.0680923;0.066452;0.074501;0.0662994;0.0750351;0.0984192;0.0747299
51;1;0.00450134;0.000762939;0.0572586;0.068779;0.0633621;0.0798798;0.0638962;0.0818634;0.0923538;0.0637817
51;2;-0.000686646;-0.000114441;0.0567245;0.0621414;0.0633621;0.0775146;0.0730896;0.0292206;0.0827789;0.067482
51;3;0.00396729;0.000648499;0.0566101;0.0645828;0.0634003;0.0743484;0.0830841;0.0148773;0.093689;0.0867462
51;4;0.00453949;-0.0018692;0.0536728;0.0666046;0.0632095;0.0702286;0.0737381;0.0267029;0.109138;0.0892639
51;5;0.00358582;-0.00167847;0.0591278;0.0584412;0.0653458;0.0727081;0.0888062;0.0465012;0.107613;0.108452
51;6;0.00301361;-0.00232697;0.0603104;0.0615311;0.065155;0.075264;0.0834274;0.0421143;0.0829315;0.138702
51;7;0.000915527;0.00156403;0.0613022;0.0618744;0.0678253;0.0767136;0.0831223;0.0616837;0.0926971;0.0695801
51;8;-0.00358582;0.00358582;0.0559998;0.057373;0.0735092;0.0727081;0.0815582;0.124283;0.0971222;0.0253677
51;9;-0.00923157;0.00518799;0.0572586;0.0595474;0.0705719;0.0653839;0.0561142;0.160141;0.0934982;0.0785446
52;0;-0.0162125;0.0012207;0.0562286;0.0628281;0.0693512;0.0637436;0.0676727;0.154457;0.10025;0.0905609
52;1;-0.0144196;0.00106812;0.0518417;0.0662994;0.0678635;0.0642014;0.0777054;0.128593;0.113831;0.0741959
52;2;-0.0135422;0.000953674;0.050354;0.0660706;0.0637054;0.0708771;0.0536728;0.118332;0.0996017;0.0819778
52;3;-0.0140381;0.00198364;0.0574493;0.0695419;0.0650787;0.0759506;0.0512695;0.0804138;0.0869751;0.0905228
52;4;-0.0144577;0.00370026;0.0519562;0.0714493;0.0654984;0.0785446;0.0879669;-0.0434494;0.108299;0.101357
52;5;0.00453949;0.00110626;0.0563812;0.0680923;0.0617218;0.0748825;0.0928879;-0.0865173;0.105743;0.0811768
52;6;0.0176239;0.00038147;0.0608063;0.0676727;0.0653839;0.0716782;0.112076;-0.0262451;0.0963593;0.0709152
52;7;0.0404739;-0.000152588;0.0589371;0.0616455;0.0682831;0.0704193;0.0977325;0.038681;0.0972748;0.07267
52;8;0.0618744;-0.00183105;0.0540543;0.0618744;0.0740051;0.0683975;0.0783539;0.0798416;0.101776;0.10273
52;9;0.0491333;-0.00354767;0.0544739;0.0597382;0.07061;0.0676346;0.0569916;0.0986862;0.095253;0.172997
53;0;0.0312424;-0.0018692;0.0543976;0.0669861;0.0723648;0.064888;0.0485229;0.101624;0.0913239;0.183792
53;1;-0.00564575;-0.00244141;0.0564957;0.0725555;0.0708008;0.0605774;0.0827408;0.125809;0.107079;0.113678
53;2;-0.0443649;-0.000305176;0.0584793;0.0717545;0.0756073;0.0640488;0.0855637;0.152016;0.0962067;0.0946045
53;3;-0.037117;0.000610352;0.057869;0.071106;0.0747299;0.069313;0.090332;0.117493;0.0984955;0.0324249
53;4;0.017128;0.00133514;0.0558853;0.0762939;0.0699997;0.0752258;0.0711823;0.0857162;0.104141;-0.0285339
53;5;0.0346756;0.000839233;0.0611115;0.0780869;0.067749;0.0734329;0.0502777;0.106277;0.105209;-0.0246429
53;6;0.00968933;0.00232697;0.0582504;0.07267;0.0636292;0.0738144;0.0715256;0.114822;0.111618;0.0341415
53;7;0.000114441;0.00305176;0.0565338;0.0715637;0.0666046;0.0693893;0.0772476;0.0651169;0.103645;0.107956
53;8;-0.0331116;0.00785828;0.055275;0.0694656;0.070343;0.0585556;0.0783157;0.0447083;0.0933838;0.127258
53;9;-0.0666809;0.0062561;0.0572968;0.0683975;0.0730896;0.0630569;0.078125;0.0578308;0.0968933;0.0882339
54;0;-0.0798798;0.00347137;0.0551224;0.0644684;0.0750732;0.0808716;0.0704193;0.0836182;0.103645;0.0398254
54;1;-0.0738525;0.000228882;0.0515747;0.0627518;0.0701523;0.0709534;0.073204;0.100594;0.115166;0.0712585
54;2;-0.0337982;-0.00846863;0.0501251;0.0638962;0.0689316;0.071106;0.0771713;0.0706482;0.10437;0.0956345
54;3;0.0346756;-0.00976562;0.0460815;0.0637817;0.0654602;0.0783539;0.0894547;0.0546646;0.0938416;0.128784
54;4;0.0716019;-0.00926971;0.0511551;0.0687027;0.0667572;0.0804901;0.0761795;0.05867;0.0950623;0.173264
54;5;-0.0038147;-0.0161743;0.0553131;0.0711441;0.0623703;0.0908661;0.0694656;0.0937653;0.0974274;0.141411
54;6;-0.0253677;-0.0148392;0.0616074;0.0734711;0.0674057;0.0887299;0.103111;0.0755692;0.108032;0.0797272
54;7;-0.0126266;-0.00865936;0.0647736;0.0779724;0.0729752;0.059967;0.0834656;0.0247192;0.0930023;0.0495911
54;8;-0.00148773;0.000648499;0.0583649;0.0708008;0.0780106;0.0344849;0.0620651;0.00980377;0.0778961;0.0897217
54;9;0.031929;0.00453949;0.0606918;0.0706482;0.0733185;0.0193405;0.0811386;-0.0241089;0.0861359;0.149307
55;0;0.0790787;0.00480652;0.0596619;0.0757599;0.0680542;0.0383759;0.0632477;-0.0492859;0.0815201;0.173798
55;1;0.101738;0.00297546;0.0564575;0.0738907;0.067482;0.0785828;0.0695801;0.0417709;0.0909424;0.0978088
55;2;0.0698853;0.00179291;0.0587845;0.0709534;0.0595093;0.123062;0.0667191;0.0958252;0.100479;0.0189209
55;3;-0.0149536;-0.00240326;0.0562286;0.0688934;0.0582123;0.122681;0.0589752;0.0831985;0.102158;0.0575256
55;4;-0.0455856;0.00175476;0.0526047;0.0663757;0.0607681;0.102501;0.0628281;0.0404358;0.105438;0.0617218
55;5;-0.0842285;0.00743866;0.0571823;0.0656509;0.0621796;0.0762558;0.0653458;0.0415802;0.102959;0.0404358
55;6;-0.0548935;0.0153732;0.0605774;0.0673676;0.061264;0.0311661;0.0738525;0.0572586;0.0980759;0.0252533
55;7;-0.00473022;0.0147629;0.0579071;0.0692749;0.0619507;0.00362396;0.0717545;0.118713;0.0902176;0.0716782
55;8;0.0499725;0.0148392;0.0546646;0.0669861;0.0634384;0.0191498;0.0696564;0.13958;0.0928497;0.100975
55;9;0.0775909;0.0102997;0.0522614;0.0666428;0.0680542;0.080719;0.0667191;0.116653;0.0951385;0.0880814
56;0;-0.00587463;0.00461578;0.0490189;0.0691986;0.0654984;0.123978;0.0648499;0.10231;0.113754;0.103951
56;1;-0.0672531;0.00499725;0.0521851;0.0674438;0.0651932;0.0893402;0.0699615;0.0675964;0.106583;0.117989
56;2;-0.0559235;0.00133514;0.0561523;0.0692749;0.0652313;0.0979614;0.0923157;0.0944519;0.111122;0.0928879
56;3;-0.0332642;-0.000228882;0.0502777;0.0702667;0.0634384;0.060463;0.100822;0.125961;0.102882;0.0882339
56;4;-0.0120163;-0.0050354;0.051384;0.0656891;0.06073;0.00991821;0.085144;0.124855;0.0964355;0.0928116
56;5;0.00526428;-0.00602722;0.0565338;0.0665283;0.0590897;0.0393677;0.0683975;0.131111;0.0938416;0.07061
56;6;-0.00240326;-0.0044632;0.0571823;0.0694275;0.0624466;0.0659561;0.0710678;0.121803;0.101852;0.0811386
56;7;0.0551987;-0.00534058;0.0580215;0.0654984;0.0650787;0.0688171;0.0675964;0.11158;0.0985336;0.0830841
56;8;0.066452;-0.00595093;0.0518417;0.0648499;0.0698471;0.0602722;0.101242;0.133133;0.0988007;0.0583267
56;9;-0.0356674;-0.00152588;0.0520706;0.0684357;0.0724792;0.0611877;0.0952911;0.153389;0.0942993;0.0569916
57;0;-0.0794601;0.000457764;0.0558853;0.0661469;0.0731659;0.0637436;0.102501;0.0879288;0.104752;0.124512
57;1;-0.0376892;0.00328064;0.0566483;0.0644302;0.0785065;0.0711823;0.0738144;0.0277328;0.107765;0.166473
57;2;-0.00968933;0.00228882;0.0578308;0.0637054;0.078392;0.082016;0.0469208;-0.0146103;0.116005;0.0862503
57;3;0.0166702;-0.00507355;0.0551605;0.0659561;0.0753021;0.101013;0.0377655;-0.0435638;0.116768;-0.0229645
57;4;0.0506592;-0.0134277;0.0602722;0.0677109;0.0703812;0.114403;0.068779;-0.0560379;0.0923538;-0.0274277
57;5;0.138435;-0.0156784;0.0626755;0.0693512;0.066452;0.103607;0.0740433;-0.0365829;0.0864792;0.0671387
57;6;0.118179;-0.0104904;0.0591278;0.0701904;0.0699234;0.0905228;0.0608826;0.0233841;0.0914383;0.0722122
57;7;0.0253296;-0.00999451;0.0584412;0.0717926;0.0709915;0.0806808;0.0551224;0.0712967;0.0944519;0.0661087
57;8;-0.0413132;-0.00236511;0.0591278;0.0731277;0.0733948;0.0872421;0.0667572;0.101929;0.111046;0.0847244
57;9;0.00682831;0.00495911;0.0622177;0.0720215;0.0723267;0.0912094;0.10273;0.111885;0.106773;0.111122
58;0;0.039444;-0.00102997;0.0587845;0.0728607;0.0667953;0.0780487;0.0835037;0.0816345;0.0860596;0.124512
58;1;-0.0203705;-0.00274658;0.0550842;0.073204;0.0703812;0.0654221;0.0540924;0.0588989;0.0941467;0.110435
58;2;-0.0753784;0.000839233;0.0592422;0.077858;0.0697708;0.0600052;0.0682068;0.0523376;0.0970078;0.101624
58;3;-0.109749;-0.00652313;0.0576401;0.0737381;0.0691223;0.0531769;0.0744629;0.0625992;0.0896072;0.0976562
58;4;-0.0674438;-0.0018692;0.0531769;0.0717163;0.0686264;0.0587463;0.0754929;0.080719;0.0897217;0.107422
58;5;-0.0105286;0.00240326;0.0584412;0.0734329;0.0709915;0.0649643;0.0741196;0.0897217;0.0893402;0.0988007
58;6;-0.00682831;0.00873566;0.0611115;0.0717163;0.0702667;0.0649643;0.0722504;0.0967407;0.0911331;0.0854874
58;7;-0.0224686;0.0139999;0.0581741;0.0704575;0.0679016;0.0605011;0.0774384;0.118065;0.0938034;0.0774002
58;8;-0.00747681;0.0207138;0.0521469;0.0703812;0.0709152;0.0648499;0.0808716;0.156822;0.102272;0.0641251
58;9;-0.00453949;0.021286;0.0513458;0.0693512;0.0717163;0.0562286;0.0830841;0.157242;0.106125;0.128708
59;0;0.0277328;0.014267;0.0558472;0.0741577;0.0688553;0.0505447;0.0934219;0.111504;0.108719;0.136147
59;1;0.0416565;0.0130081;0.0521851;0.067482;0.0663757;0.043602;0.084343;0.0862885;0.093689;0.0917053
59;2;0.0547028;0.00221252;0.0537109;0.069046;0.0629425;0.0620651;0.0783539;0.031662;0.0835037;0.0857544
59;3;0.0457001;-0.00389099;0.0552368;0.0697708;0.0605011;0.0656509;0.0851059;-0.0614548;0.0892639;0.0861359
59;4;0.00518799;-0.00843048;0.0513458;0.0664902;0.0627518;0.0751495;0.0967789;-0.062561;0.108643;0.105515
59;5;-0.0345993;-0.0126648;0.0531006;0.069046;0.0643539;0.0782394;0.0854492;-0.022049;0.111656;0.0291443
59;6;-0.0575256;-0.00518799;0.0546265;0.0717163;0.0638199;0.0856781;0.0543594;0.0384903;0.102043;0.0224304
59;7;-0.089035;0.00354767;0.0577927;0.0725174;0.0675964;0.0981522;0.0278854;0.0847244;0.090065;0.0834274
59;8;0.0177002;0.00923157;0.0568771;0.0669098;0.070076;0.116959;0.0500107;0.101242;0.0945663;0.120277
59;9;0.0737381;0.00724792;0.0609207;0.0636292;0.0717163;0.0968933;0.0709534;0.133972;0.102081;0.114708
60;0;0.0692368;0.00175476;0.0551224;0.0603104;0.0663376;0.016861;0.0807571;0.142899;0.112801;0.0812912
60;1;0.051384;-0.00724792;0.0508118;0.0636673;0.0640869;-0.0507736;0.079689;0.0788498;0.105782;0.0761032
60;2;0.0479889;-0.0110245;0.0525665;0.0614166;0.0667572;0.0213623;0.0815964;0.0205994;0.101318;0.0823212
60;3;0.0349808;-0.00850677;0.0534058;0.0681686;0.0617599;0.0424957;0.0831604;0.0418091;0.105896;0.066185
60;4;0.0499344;-0.00621796;0.0543976;0.0713348;0.0630569;0.0596619;0.0848007;0.0826645;0.104179;0.0752258
60;5;0.0481415;-0.00850677;0.0601196;0.0731277;0.0617218;0.108528;0.0722122;0.09655;0.091362;0.0909805
60;6;-0.0225067;-0.00473022;0.0604248;0.0751877;0.0692749;0.123367;0.0521469;0.114899;0.0870514;0.0904846
60;7;-0.187912;-0.00270844;0.0522995;0.0728607;0.0719452;0.106125;0.0609589;0.086174;0.0896072;0.0852203
60;8;-0.132446;-0.00606537;0.0555038;0.0640488;0.0738907;0.0731659;0.0773621;0.0696182;0.0939178;0.0959015
60;9;-0.0632858;-0.00839233;0.0498199;0.0585938;0.0712967;0.0589752;0.0836182;0.0792694;0.099144;0.117607
61;0;-0.0636673;-0.00904083;0.0536728;0.0662613;0.0690079;0.0707245;0.0786591;0.086174;0.0958252;0.0901413
61;1;-0.058136;-0.00572205;0.0508118;0.0674057;0.0688553;0.0831985;0.0556564;0.102768;0.0972748;0.0558853
61;2;-0.0357437;-0.00366211;0.0524521;0.0721359;0.0697327;0.0973129;0.059433;0.105057;0.100288;0.0514221
61;3;-0.0233841;0.0062561;0.0554276;0.0718689;0.0689316;0.100746;0.0878143;0.0780869;0.0859451;0.0876617
61;4;0.0330353;0.0120163;0.0624466;0.0699234;0.0730896;0.0899887;0.100021;0.0643158;0.0989532;0.151634
61;5;0.0958633;0.010376;0.0650024;0.0720978;0.0669098;0.0608826;0.106544;0.0764847;0.109863;0.110283
61;6;0.0601196;0.00263214;0.0587845;0.0721359;0.0670242;0.0351334;0.0971222;0.105362;0.112305;-0.0281906
61;7;-0.0038147;-0.00492096;0.0598907;0.0715256;0.0676346;0.0610352;0.07267;0.112495;0.0928497;0.0255585
61;8;-0.00087738;-0.00770569;0.0575638;0.0669098;0.0707245;0.0733566;0.0807953;0.0592422;0.110931;0.103645
61;9;0.0226593;-0.00938416;0.0517654;0.0638199;0.0733948;0.0670242;0.0399017;0.0498962;0.104256;0.0879669
62;0;0.0331116;-0.00423431;0.0556183;0.0646591;0.0681686;0.0663757;0.0169754;0.0279617;0.101814;0.0948715
62;1;0.0522614;0.0038147;0.0578308;0.0622559;0.0649643;0.0712204;0.0569534;0.0253296;0.109634;0.0654984
62;2;0.0484085;-0.000534058;0.0598907;0.0630951;0.0690842;0.0771713;0.0737381;0.0462723;0.103836;0.08461
62;3;0.0508118;-0.00415802;0.0589752;0.0667953;0.070343;0.0768661;0.104523;0.00644684;0.094986;0.135841
62;4;0.106621;0.00354767;0.0591278;0.0696564;0.063324;0.0795746;0.127373;0.0307465;0.100899;0.105438
62;5;0.0965118;0.00564575;0.0598526;0.07061;0.062027;0.0759888;0.111122;0.0894165;0.102234;0.0187683
62;6;0.0491714;0.0116348;0.0619507;0.0705338;0.0637436;0.0710297;0.0428009;0.115471;0.100174;0.0621033
62;7;-0.0359726;0.0118637;0.0603867;0.0740814;0.0722122;0.0727463;0.0518036;0.144501;0.0877762;0.134544
62;8;-0.0746918;0.00827789;0.0569153;0.0691223;0.0706863;0.0799942;0.0731277;0.133171;0.0873566;0.0960159
62;9;-0.138092;0.0104141;0.055542;0.0750351;0.0742722;0.0808334;0.0717545;0.0817871;0.104446;-0.00205994
63;0;-0.150146;0.00896454;0.0537872;0.0810623;0.0708771;0.0593185;0.0587082;0.0489426;0.101242;-0.0250244
63;1;0.0161743;0.00110626;0.0539398;0.075531;0.0640488;0.0499725;0.0661087;0.0655365;0.0940323;0.0758362
63;2;0.054512;0.000305176;0.0577927;0.0715637;0.0653076;0.0492096;0.0653839;0.114021;0.0841522;0.131607
63;3;0.00606537;0.00320435;0.0569153;0.0753403;0.0638199;0.0444794;0.0802612;0.0456619;0.0928497;0.143585
63;4;0.00762939;0.00415802;0.0534821;0.0746536;0.0614548;0.0574493;0.0692368;-0.0907516;0.101357;0.117798
63;5;0.00549316;0.00362396;0.0541687;0.0712585;0.0662994;0.0686646;0.082283;-0.171242;0.0957108;0.0740433
63;6;0.00507355;0.000610352;0.0547791;0.0746536;0.0642395;0.0595856;0.0951385;-0.0550842;0.0933838;0.0483322
63;7;0.0165939;-0.00476837;0.0516891;0.0691223;0.0658798;0.0676727;0.0643158;0.0341034;0.0966644;0.125504
63;8;0.0387573;-0.00423431;0.0532913;0.0627518;0.067482;0.0759506;0.0960159;0.0770569;0.115852;0.139885
63;9;0.0113678;-0.00549316;0.0531006;0.0644302;0.0670624;0.0907135;0.0733185;0.10479;0.0974274;0.168533
64;0;-0.0485992;-0.00541687;0.0543594;0.0648117;0.0628281;0.105858;0.0666046;0.13073;0.0849152;0.181618
64;1;-0.0421524;-0.0082016;0.053215;0.0669098;0.0646973;0.114632;0.0800705;0.161209;0.0867844;0.125809
64;2;-0.03582;-0.00488281;0.0504684;0.0631714;0.0611115;0.126419;0.0785828;0.164375;0.0976944;0.125771
64;3;-0.0145721;-0.00228882;0.051651;0.0647736;0.0658417;0.0904465;0.077095;0.155983;0.106125;0.0901031
64;4;-0.00988007;0.00354767;0.0518417;0.0648499;0.065155;0.0448608;0.072937;0.147209;0.0996017;0.0232697
64;5;0.00614166;0.00305176;0.0535202;0.0669098;0.0705719;0.0275421;0.0624084;0.141411;0.0995255;0.00190735
64;6;0.0043869;0.00488281;0.0539017;0.0720596;0.0721359;0.0272369;0.0694656;0.142746;0.0997925;0.0309753
64;7;0.00679016;-0.00118256;0.0568008;0.0740814;0.0733948;-0.0198746;0.0841141;0.125809;0.104332;0.0803375
64;8;0.0204468;-0.00595093;0.0481033;0.0669861;0.0757217;-0.001297;0.0721741;0.111008;0.101814;0.101089
64;9;0.0416565;-0.00999451;0.0476837;0.0639725;0.0775146;0.0764465;0.0750351;0.109291;0.106773;0.0688171
65;0;0.040741;-0.00766754;0.0561905;0.0677109;0.0779724;0.101471;0.07164;0.114479;0.106659;0.0589752
65;1;0.00751495;-3.81E-05;0.0539017;0.0675964;0.0764084;0.0575638;0.0702286;0.143585;0.105324;0.0619888
65;2;-0.0244141;0.00347137;0.0623703;0.0655746;0.0755692;0.0666046;0.0728226;0.152893;0.101395;0.0667953
65;3;-0.0400543;-0.00102997;0.068779;0.0680161;0.0709152;0.0895691;0.0708771;0.120163;0.0813675;0.0741196
65;4;-0.0394821;-0.0018692;0.067215;0.0690079;0.0702286;0.150719;0.0605392;0.0282669;0.0782776;0.0835037
65;5;-0.00785828;-0.0038147;0.0687027;0.0684738;0.0701904;0.186958;0.0573349;-0.0772095;0.106277;0.0871658
65;6;0.0179672;-0.000801086;0.0684738;0.071373;0.068779;0.106125;0.0707626;-0.118523;0.104866;0.1017
65;7;0.0299072;0.00530243;0.0633621;0.0715637;0.066452;-0.113144;0.0743484;-0.0603104;0.0993347;0.100174
65;8;0.0127792;0.00442505;0.0616837;0.0710297;0.071907;-0.0469208;0.0349045;0.0631714;0.0941467;0.134239
65;9;-0.0271988;0.00415802;0.0508499;0.0695038;0.0686264;0.0538635;0.0896072;0.127068;0.10891;0.153656
66;0;-0.0359344;0.00499725;0.0548172;0.0682068;0.0658035;0.079422;0.125351;0.148239;0.131035;0.103645
66;1;-0.0307083;0.00785828;0.0537109;0.0690842;0.0659943;0.0885773;0.0799942;0.152359;0.108948;0.0285339
66;2;-0.0183105;0.00709534;0.0521088;0.0748444;0.0644684;0.0996399;0.103188;0.104713;0.0896454;0.0159454
66;3;-0.0125122;0.00244141;0.0505829;0.0745773;0.0640106;0.110397;0.0914001;-0.106773;0.0931168;-0.00785828
66;4;0.0131607;-0.00190735;0.0535583;0.0692368;0.0669479;0.104752;0.0823975;-0.278053;0.100136;0.0284195
66;5;0.0267792;-0.00320435;0.0554657;0.0738525;0.0651169;0.109634;0.0787735;-0.225182;0.10231;0.0190735
66;6;0.0546646;-0.00125885;0.0546646;0.0725555;0.0607681;0.103569;0.0746155;-0.0672913;0.100632;0.00904083
66;7;0.0868607;0.00396729;0.0529861;0.072937;0.0650787;0.100899;0.0723267;0.0755692;0.0873566;0.0972748
66;8;0.0894165;0.00411987;0.0519562;0.0685501;0.0618362;0.0967789;0.0743484;0.169525;0.0966644;0.132599
66;9;0.0595856;0.00720978;0.0546646;0.0712967;0.0673676;0.0965118;0.0654602;0.179863;0.102768;0.140877
67;0;0.0210571;0.000953674;0.0547409;0.0688171;0.0651169;0.0838089;0.0531006;0.20359;0.0994873;0.131531
67;1;-0.00484467;0.00133514;0.0520325;0.0688171;0.0665283;0.0775528;0.0431442;0.236626;0.0905991;0.127831
67;2;-0.014534;-0.00469208;0.0532913;0.0733948;0.0644684;0.0765228;0.0542068;0.234528;0.0953293;0.138817
67;3;-0.0126266;-0.0128937;0.0506592;0.0683594;0.0619888;0.0729752;0.052948;0.17231;0.0973511;0.13195
67;4;-0.0297165;-0.0192261;0.0538254;0.0628281;0.0643158;0.0710297;0.0635147;0.119286;0.0910187;0.0935364
67;5;-0.0621796;-0.0200272;0.0558853;0.0624466;0.0645065;0.0644684;0.0733566;0.0459671;0.0888824;0.0725937
67;6;-0.0664902;-0.0113297;0.0572586;0.0642014;0.0675964;0.057373;0.0770187;0.0595856;0.0920868;0.079689
67;7;-0.0518036;-0.00785828;0.0601196;0.0696182;0.0666046;0.0582504;0.0796127;0.0730133;0.0905228;0.103683
67;8;-0.053215;0.0044632;0.0543976;0.0689697;0.069809;0.0525665;0.0936508;0.0821304;0.111847;0.106697
67;9;-0.0554276;0.0112152;0.0555801;0.0662231;0.069809;0.0447845;0.0878143;0.115318;0.110283;0.0922394
68;0;-0.0333786;0.00812531;0.0603104;0.0648117;0.0708008;0.0414658;0.0826645;0.105095;0.0850677;0.096283
68;1;-0.00785828;0.00331879;0.0605392;0.0685501;0.0685883;0.0442505;0.0893402;0.108948;0.0780869;0.116539
68;2;0.00259399;0.00888824;0.0574493;0.0666428;0.07164;0.056572;0.095787;0.10334;0.0974274;0.122986
68;3;0.00926971;0.00850677;0.0613022;0.0720215;0.0726318;0.0572586;0.0889587;0.105896;0.127373;0.094986
68;4;0.021286;0.00514984;0.0613022;0.0750351;0.0712585;0.0590897;0.0510025;0.0805664;0.0964355;0.0721741
68;5;0.032692;0.000648499;0.0587463;0.0701904;0.0709915;0.0641632;0.0618362;0.0407791;0.0896454;0.0483322
68;6;0.0557327;0.00667572;0.0600433;0.0742722;0.0694656;0.062294;0.0774384;0.0570297;0.0923538;0.0406265
68;7;0.0150681;0.00495911;0.0587463;0.070343;0.0720215;0.0585938;0.0848007;0.0537872;0.0984573;0.0482941
68;8;0.00682831;0.00602722;0.0534439;0.0697327;0.0687408;0.0621796;0.0802994;0.0234222;0.104828;0.110092
68;9;0.00133514;0.00514984;0.051384;0.0699615;0.0680161;0.06073;0.0726318;0.00923157;0.113411;0.0762939
69;0;0.00289917;0.00411987;0.0580978;0.0717163;0.0632477;0.0598907;0.0706863;0.0175095;0.109787;0.0245285
69;1;0.00816345;0.00118256;0.0580215;0.0696182;0.0637817;0.0664902;0.0761795;0.0314331;0.113182;0.0618362
69;2;0.0419617;-0.00457764;0.0524139;0.0684738;0.0642776;0.0623322;0.0558853;0.0503922;0.0947571;0.0992966
69;3;0.0590134;-0.00881195;0.0556564;0.0675583;0.065918;0.0662994;0.0671768;0.0603104;0.0849152;0.112267
69;4;0.0468826;-0.00663757;0.0506592;0.0681686;0.0666428;0.0680923;0.0870132;0.0737762;0.103607;0.0538635
69;5;-0.035553;-0.00354767;0.0568008;0.0671387;0.0699234;0.0737;0.0719452;0.0770187;0.104179;0.0353622
69;6;-0.0632858;-0.000572205;0.060997;0.0695419;0.0705719;0.0769424;0.0785446;0.0730896;0.0936127;0.046463
69;7;-0.0418091;-0.00610352;0.0551987;0.0701904;0.0738907;0.0803375;0.0789642;0.0653458;0.101814;0.0550842
69;8;0.04776;0.00183105;0.0509644;0.0673294;0.0772095;0.0772858;0.0834656;0.0567245;0.0956726;0.0783539
69;9;0.066452;0.00038147;0.0513077;0.0697708;0.0754547;0.0767517;0.0970078;0.0727844;0.0933838;0.0687027
70;0;-0.0420761;0.000801086;0.0521851;0.072403;0.0709534;0.0778961;0.0962448;0.0973892;0.0962067;0.0450134
70;1;-0.149117;-0.00469208;0.0490189;0.0651169;0.0662231;0.0802231;0.0719833;0.0815201;0.0973892;0.0501251
70;2;-0.0140762;-0.00694275;0.0539017;0.0663757;0.065918;0.0739288;0.0576782;0.0574112;0.109711;0.096817
70;3;0.0242233;-0.0062561;0.0556183;0.0684357;0.0612259;0.0720978;0.0483322;0.0455093;0.105476;0.167809
70;4;0.0246048;-0.000953674;0.0519562;0.0725174;0.0655365;0.0734329;0.0616455;0.0475693;0.0866699;0.139389
70;5;0.00133514;-0.00263214;0.0555801;0.0679779;0.0675201;0.0713348;0.0813675;0.0101089;0.0787735;0.128746
70;6;0.0121689;-0.00507355;0.0550842;0.0666809;0.0662994;0.0745392;0.0751877;-0.019455;0.0784683;0.0963211
70;7;-0.0105286;-0.00255585;0.0540924;0.071373;0.0666046;0.0769424;0.077095;0.0256348;0.0932693;0.0954056
70;8;-0.0120926;0.00682831;0.0513458;0.0712585;0.0695801;0.0737381;0.05867;0.11879;0.100594;0.117722
70;9;0.0128174;0.00717163;0.0508881;0.0603867;0.0720596;0.0723267;0.0712585;0.228004;0.122032;0.0935364
71;0;0.027771;0.001297;0.0542831;0.0678635;0.0709915;0.0798416;0.0888062;0.239105;0.116615;0.095253
71;1;0.0267029;0.00339508;0.0597382;0.0667191;0.0694275;0.0792313;0.0685883;0.130653;0.089035;0.125618
71;2;0.027504;0.00232697;0.0632477;0.0736237;0.0684738;0.0796127;0.062561;0.109596;0.105362;0.0848007
71;3;0.0172806;0.00152588;0.0662231;0.0711441;0.0671005;0.0760269;0.0704575;0.0782013;0.101395;0.0233841
71;4;0.0119019;0.00370026;0.0592804;0.0729752;0.0654602;0.0733185;0.0961685;-0.0748825;0.0964737;0.0349426
71;5;0.00915527;0.0025177;0.0628662;0.0725937;0.0637436;0.071373;0.0844193;-0.0890732;0.1054;0.0693512
71;6;0.0102997;-0.00110626;0.0633621;0.076561;0.0671768;0.0698853;0.0365829;-0.0265884;0.0842667;0.0954056
71;7;0.0087738;-0.00286102;0.063591;0.0737;0.0650406;0.0722885;0.0645065;-0.0385284;0.094223;0.115471
71;8;0.0114059;0.0043869;0.0605392;0.0701141;0.067215;0.0679779;0.0843048;0.0038147;0.0876999;0.0965881
71;9;-0.00106812;0.00396729;0.0556183;0.0684357;0.0672913;0.0624084;0.0690842;0.00087738;0.0947189;0.0681305
72;0;-0.00640869;0.000228882;0.0611877;0.0727081;0.0671387;0.062027;0.085907;-0.0401688;0.0992203;0.0611877
72;1;-0.00816345;0.00144958;0.0575256;0.0693893;0.0685501;0.0644684;0.0940323;0.0642395;0.115318;0.0845337
72;2;-0.00495911;-0.000305176;0.059166;0.0730896;0.0699615;0.0648117;0.0590134;0.156441;0.105743;0.0878906
72;3;-0.00617981;-0.000228882;0.059433;0.0701904;0.0679016;0.0668716;0.0690079;0.20195;0.0948334;0.0830841
72;4;-0.00732422;-0.00255585;0.0553513;0.0701523;0.0680161;0.0585556;0.0733566;0.224953;0.0985336;0.0801849
72;5;-0.01091;-0.0018692;0.0551605;0.0726318;0.0658035;0.0623703;0.0713348;0.230408;0.0960922;0.105171
72;6;-0.0130081;-0.00144958;0.0591278;0.0737;0.0660706;0.0701904;0.0943756;0.223579;0.105171;0.0932693
72;7;-0.0164032;0.00171661;0.0533676;0.0704193;0.0709534;0.0706863;0.0842667;0.137596;0.0990677;0.0914764
72;8;-0.014267;0.00137329;0.0485229;0.0623322;0.0712967;0.0690842;0.0814438;0.0812912;0.107193;0.104179
72;9;-0.0151443;0.000152588;0.04776;0.0592422;0.0712967;0.0759888;0.0694656;0.0807953;0.0992203;0.114822
73;0;-0.0117874;-0.00198364;0.0499344;0.0581741;0.0682831;0.0803375;0.0686264;0.088501;0.0900269;0.08461
73;1;-0.00743866;0.00038147;0.0497818;0.0624847;0.0658417;0.0757599;0.0658035;0.122108;0.0902939;0.0812531
73;2;-0.0044632;0.000190735;0.0535583;0.067749;0.0677109;0.0699615;0.0584793;0.177307;0.0929642;0.0840378
73;3;0.00171661;-0.00312805;0.0507736;0.0640106;0.0681305;0.0674438;0.0796127;0.186424;0.106583;0.0616074
73;4;0.000267029;-0.00225067;0.0531769;0.0636673;0.0672913;0.0610352;0.0873947;0.110741;0.113564;0.05867
73;5;-0.00274658;-0.000953674;0.0545502;0.0634384;0.0667191;0.0551605;0.0640869;-0.0356674;0.0865555;0.0525665
73;6;-0.000915527;0.0019455;0.0537109;0.0662231;0.066452;0.0674057;0.0855255;-0.133705;0.0954819;0.0718689
73;7;0.00556946;0.000801086;0.0498199;0.0671768;0.0650406;0.0722504;0.0732803;-0.120049;0.10994;0.100365
73;8;0.0118637;0.000228882;0.0529099;0.0662994;0.0669479;0.0753784;0.0600052;-0.0324631;0.0986862;0.111237
73;9;0.00778198;0.00484467;0.0540924;0.0643539;0.0673676;0.0686646;0.0873566;0.0511551;0.0963211;0.186501
74;0;0.00766754;0.000686646;0.0550461;0.0690079;0.0677109;0.0677872;0.102386;0.0677872;0.110779;0.13031
74;1;-0.00385284;-0.00370026;0.0596237;0.0704575;0.0678635;0.0644302;0.0749969;0.0782776;0.0993347;0.0606155
74;2;-0.0183487;-0.00564575;0.0551224;0.0692749;0.0643539;0.0662613;0.0740814;0.0933456;0.0958252;0.00167847
74;3;-0.0227356;-0.00125885;0.0528336;0.0734329;0.0712585;0.0719833;0.0629425;0.103989;0.0959015;0.00411987
74;4;-0.021553;0.00209808;0.0486755;0.0791931;0.0694275;0.0725174;0.0639725;0.109558;0.0969315;-0.0117493
74;5;-0.017662;-0.00213623;0.0553894;0.0788116;0.0698471;0.0701523;0.067749;0.113678;0.10067;0.0379181
74;6;-0.00450134;-0.000343323;0.0577164;0.0769424;0.0679398;0.0661087;0.0528717;0.095253;0.094223;0.118408
74;7;-0.00717163;0.0037384;0.0571823;0.0754929;0.0716019;0.0659561;0.0601959;0.0489426;0.0958252;0.135002
74;8;-0.0233841;0.00865936;0.0556946;0.0742722;0.0691605;0.0681305;0.113831;0.0270462;0.116272;0.0858688
74;9;0.00869751;0.00850677;0.0571442;0.0748444;0.0752258;0.0690842;0.0771713;0.0398636;0.100594;0.0590515
75;0;0.02388;0.00236511;0.0585175;0.0770569;0.0737;0.0683212;0.0666046;0.0452042;0.0931168;0.0786972
75;1;0.0263977;-0.00263214;0.064621;0.0689316;0.0716019;0.0739288;0.0743484;0.0505066;0.0846863;0.0854874
75;2;0.0283051;-0.00858307;0.063324;0.07267;0.0663376;0.0761795;0.0759506;0.0383377;0.0857925;0.0917435
75;3;0.0443268;-0.000839233;0.062027;0.0756836;0.0674057;0.0728226;0.0681305;0.0733948;0.0902939;0.13031
75;4;0.038147;-0.00247955;0.0627136;0.0698853;0.0687027;0.0624847;0.0590134;0.0639725;0.0947952;0.152664
75;5;-0.00865936;-0.00499725;0.0654984;0.0662994;0.0634003;0.0654221;0.0809479;0.0282288;0.10643;0.13813
75;6;-0.00827789;-0.00495911;0.0689697;0.068512;0.0591278;0.0725174;0.0925064;0.0749207;0.106773;0.0815201
75;7;-0.0144196;-0.000267029;0.0694275;0.0724792;0.0646973;0.0776291;0.0839233;0.110321;0.107689;0.00617981
75;8;-0.0232697;0.00465393;0.0623322;0.0730133;0.0674057;0.0720596;0.0873947;0.0946426;0.102234;-0.00648499
75;9;-0.0159454;0.00167847;0.0571442;0.0691605;0.071106;0.0624466;0.0756454;0.0360107;0.090065;0.126877
76;0;-0.00419617;0.000457764;0.0596237;0.0654984;0.0698853;0.068779;0.0761414;0.0376129;0.0852203;0.13855
76;1;0.00862122;0.00141144;0.0526047;0.0690842;0.0661087;0.0709534;0.0684738;0.0539398;0.0994873;0.109749
76;2;0.0458908;-0.000801086;0.0439453;0.0664139;0.0667953;0.0806808;0.0733566;0.0513077;0.107918;0.149345
76;3;0.0554657;-0.00358582;0.0401306;0.0690079;0.067215;0.0837326;0.0764465;0.0817108;0.115547;0.10704
76;4;0.0208664;-0.00125885;0.0476074;0.068779;0.0653839;0.0797653;0.0767136;0.107002;0.114365;0.0624466
76;5;0.00427246;0.00408173;0.0592804;0.0659561;0.0652313;0.0866699;0.100861;0.12661;0.122375;0.0482178
76;6;-0.00301361;0.00354767;0.0645447;0.065155;0.0686646;0.0793839;0.0469208;0.129204;0.114136;0.0437164
76;7;-0.000457764;-0.00110626;0.0603485;0.0654602;0.0727081;0.0634384;0.0540924;0.144844;0.0865555;0.0586319
76;8;-0.00705719;-0.000534058;0.0548935;0.0632477;0.0768661;0.0638199;0.050354;0.130272;0.0607681;0.102882
76;9;-0.0101471;0.00152588;0.0499344;0.0613403;0.0693893;0.0630188;0.0440598;0.12207;0.0594711;0.123215
77;0;-0.00411987;0.0037384;0.0486374;0.0653076;0.0701904;0.0692749;0.0627136;0.131111;0.0814056;0.0926208
77;1;-0.0171661;0.00675201;0.0474548;0.0661087;0.0772476;0.0672913;0.0614166;0.141373;0.0921249;0.0479507
77;2;-0.0202179;0.00751495;0.050087;0.0705338;0.0737762;0.0662994;0.0757599;0.163574;0.101051;0.0418091
77;3;-0.00846863;0.00553131;0.0528336;0.0689316;0.0728607;0.0683975;0.108185;0.0589752;0.11425;0.0722504
77;4;-0.0102615;0.00106812;0.0563431;0.0639343;0.0704193;0.0770569;0.0997543;-0.121689;0.10643;0.106468
77;5;-0.0180435;0.00179291;0.0595474;0.0611496;0.0691605;0.0740433;0.102844;-0.267029;0.103073;0.114136
77;6;-0.0214386;0.000457764;0.0605392;0.0632858;0.0671387;0.0709915;0.0881958;-0.156136;0.0965881;0.110397
77;7;-0.0135803;0.00247955;0.0597763;0.0632477;0.0664139;0.0662231;0.071907;0.0753021;0.100212;0.0883102
77;8;0.00141144;0.00141144;0.0555038;0.0617218;0.0692749;0.0694275;0.0778961;0.201645;0.126076;0.075798
77;9;0.00324249;-0.0030899;0.0524139;0.0673676;0.070343;0.0715637;0.0636292;0.163651;0.0984955;0.0776672
78;0;0.0159073;-0.00648499;0.0495148;0.0701523;0.0675964;0.0693893;0.0837708;0.0418472;0.0934601;0.100937
78;1;0.0167847;-0.0120163;0.0510788;0.070343;0.0648499;0.0708008;0.104141;0.0283432;0.10334;0.099411
78;2;0.0131989;-0.00751495;0.0572968;0.0740814;0.0657654;0.0628281;0.0871277;0.107422;0.0885773;0.0823975
78;3;0.0179291;-0.00179291;0.0569153;0.0746536;0.0628662;0.0567245;0.067482;0.101776;0.0828934;0.0375366
78;4;0.0149155;-0.00839233;0.0577164;0.0725555;0.0615311;0.0621033;0.0307465;0.103264;0.110321;0.086937
78;5;0.00961304;-0.00961304;0.0611877;0.0748825;0.0551224;0.0623322;0.039444;0.0720596;0.138168;0.0944901
78;6;-0.000152588;-0.00762939;0.0570679;0.071907;0.0575256;0.0653839;0.0746536;0.043869;0.120659;0.0632095
78;7;-0.0149918;-0.00148773;0.0558853;0.0722504;0.0617218;0.0605011;0.0609207;0.0995636;0.0841141;0.049057
78;8;-0.0220871;0.00171661;0.0560379;0.0708389;0.0653458;0.0606537;0.0457382;0.132332;0.0889969;0.0714493
78;9;-0.0243759;-3.81E-05;0.0562286;0.0728989;0.0737762;0.0695801;0.0937653;0.0809097;0.0979614;0.151138
79;0;-0.0127411;0.000801086;0.0557327;0.0700378;0.0679398;0.0762177;0.113373;0.0447464;0.12867;0.182991
79;1;0.00621796;0.00377655;0.0553894;0.0704956;0.067482;0.0669098;0.0994873;0.0435257;0.0879669;0.0593185
79;2;0.0133514;0.00450134;0.0580597;0.0737381;0.0695801;0.0695801;0.0408173;0.0767517;0.0455093;0.000267029
79;3;0.00961304;0.00682831;0.0552368;0.0708771;0.0698853;0.0749969;0.0478363;0.12352;0.0611115;0.116043
79;4;0.0136185;0.00534058;0.0540161;0.068512;0.0681305;0.0733566;0.071373;0.138588;0.0748062;0.133629
79;5;-0.001297;0.00495911;0.0563049;0.0725555;0.0643539;0.0777435;0.0793076;0.123787;0.101624;0.0391388
79;6;-0.0205612;0.00267029;0.0583267;0.0718689;0.067215;0.0832748;0.0907135;0.0673294;0.108643;0.0517654
79;7;-0.0151443;0.00167847;0.0584793;0.0698471;0.0696182;0.0780106;0.0904465;0.105362;0.0902557;0.071106
79;8;-0.0118637;0.00347137;0.0548172;0.0668716;0.0770569;0.0792313;0.0912476;0.113487;0.112152;0.0144196
79;9;-0.00473022;0.00476837;0.0520706;0.0698853;0.0811005;0.0749588;0.0934601;0.0880051;0.112991;0.013237
80;0;-0.00957489;0.00259399;0.0555038;0.0711441;0.0721741;0.07164;0.0851059;0.121689;0.109138;0.0653458
80;1;-0.00484467;0.00370026;0.0548172;0.0668335;0.0723267;0.0738144;0.0737762;0.0918961;0.100098;0.124779
80;2;-0.0199509;-0.00217438;0.0584412;0.0659561;0.0672913;0.076828;0.0579834;0.0809097;0.104675;0.105438
80;3;-0.0101852;-0.00835419;0.0554657;0.0708008;0.0664902;0.0843811;0.0634766;0.0546646;0.116234;0.0971985
80;4;-0.0152588;-0.000572205;0.0598907;0.0712585;0.0698853;0.0688171;0.0794601;0.0565338;0.12825;0.141716
80;5;0.00312805;0.0037384;0.0549698;0.0680542;0.0695419;0.0609207;0.0667191;0.0481796;0.090332;0.158958
80;6;0.0121689;0.00675201;0.0583267;0.0699997;0.0665665;0.0675583;0.0713348;0.0857925;0.0976562;0.103226
80;7;-0.0038147;0.00709534;0.0655746;0.0732803;0.065155;0.0611496;0.0864029;0.118065;0.125923;0.118408
80;8;0.0319672;0.0110245;0.0613403;0.0650787;0.0726318;0.057869;0.112343;0.118332;0.125389;0.12207
80;9;0.0415039;0.00728607;0.0535583;0.0614166;0.0711441;0.0514603;0.0478745;0.0615311;0.0771713;0.0643158
81;0;0.0149536;0.0018692;0.0524139;0.0669861;0.0652313;0.0715256;0.0382996;-0.0185013;0.0866318;0.0393677
81;1;-0.0346375;-0.00564575;0.0500107;0.0681686;0.0688553;0.0683212;0.0884247;-0.0318527;0.118065;0.0149536
81;2;-0.0268173;-0.00617981;0.053215;0.0647736;0.0699234;0.044136;0.072403;-0.00808716;0.096817;0.0523376
81;3;-0.000953674;-0.00812531;0.056839;0.069809;0.0699997;0.0473404;0.0677109;0.0290298;0.0757217;0.121231
81;4;0.0193024;-0.0094223;0.0568008;0.073204;0.0667191;0.0591278;0.0718307;0.055542;0.0608063;0.150452
81;5;0.0135422;-0.0156403;0.0587463;0.0759125;0.0613022;0.0753021;0.0854874;0.0505447;0.086441;0.112686
81;6;0.0134659;-0.0112534;0.0558853;0.0753784;0.0610352;0.0887299;0.0712585;0.0177002;0.11158;0.0292969
81;7;0.0259018;-0.000419617;0.0487518;0.0691605;0.060997;0.0899124;0.0793839;-0.086441;0.101089;0.0669861
81;8;0.0197601;0.00278473;0.0544739;0.0721741;0.0676727;0.0799179;0.0696945;-0.0427628;0.090332;0.130653
81;9;0.014534;-0.00286102;0.0518417;0.0663757;0.0706482;0.0777817;0.0447464;0.0931931;0.0992584;0.12207
82;0;0.0134659;-0.00415802;0.060463;0.0702286;0.0641251;0.0766373;0.0658798;0.098877;0.0966263;0.0143051
82;1;0.0112915;-0.00614166;0.0605774;0.0709915;0.0653076;0.0747299;0.0741959;0.0693512;0.106354;-0.00785828
82;2;0.00793457;0.00160217;0.0573349;0.0658798;0.0671005;0.0793076;0.0828171;0.0498962;0.122986;0.0244522
82;3;0.0176239;0.00892639;0.0564957;0.0667191;0.0704956;0.0774384;0.103645;0.0762939;0.102386;0.0767517
82;4;0.0154495;0.00904083;0.0605774;0.0690079;0.0710678;0.074501;0.0842667;0.118256;0.093689;0.0788879
82;5;0.00133514;0.00511169;0.0611496;0.0669861;0.0672531;0.0725937;0.0523758;0.141182;0.072403;0.113487
82;6;-0.00228882;0.00419617;0.0575638;0.0682831;0.065918;0.0696182;0.053978;0.159149;0.083313;0.146103
82;7;-0.0201035;0.00766754;0.0548553;0.0741196;0.0724411;0.0766754;0.0803375;0.159378;0.0980759;0.135765
82;8;-0.0251007;0.00114441;0.0546646;0.0700378;0.0727844;0.0713348;0.0668335;0.163231;0.0946045;0.0801849
82;9;-0.0289917;-0.00324249;0.0490189;0.0654602;0.0726318;0.0715637;0.0699234;0.150757;0.0959396;0.0623322
83;0;-0.0248718;0.00118256;0.0545883;0.0697708;0.0740433;0.0759888;0.0838089;0.135269;0.118256;0.0899124
83;1;-0.016861;-0.0037384;0.0547409;0.0675964;0.0718307;0.0657272;0.0683212;0.107269;0.105705;0.0712585
83;2;0.0201416;-0.0088501;0.0579834;0.0732422;0.0679016;0.0692368;0.084343;0.0629807;0.111122;0.0888824
83;3;3.81E-05;-0.00396729;0.0595856;0.0717926;0.0679779;0.069809;0.099144;0.026474;0.107918;0.087738
83;4;-0.0185776;0.00274658;0.0584793;0.0736237;0.0696945;0.0627899;0.113144;0.121689;0.098877;0.0640488
83;5;-0.0228119;0.00701904;0.0571442;0.0672913;0.0712585;0.0629044;0.119972;0.16613;0.109367;0.0541687
83;6;-0.0217819;0.0069046;0.055542;0.0674438;0.0658035;0.0543976;0.079689;0.0991058;0.12188;0.0798035
83;7;-0.018692;0.00247955;0.0513077;0.0623703;0.0647736;0.0529861;0.0513458;0.0263214;0.0620651;0.159874
83;8;0.000114441;0.00236511;0.0546265;0.0576782;0.0664139;0.0592804;0.0424957;-0.00411987;0.0368881;0.247345
83;9;0.0178909;0.000572205;0.0476074;0.0597763;0.0708008;0.0668335;0.051651;-0.0152588;0.0687027;0.140457
84;0;0.0513077;-0.00297546;0.0483322;0.0589371;0.0661469;0.0696564;0.0464249;-0.0439453;0.0862503;-0.0200653
84;1;0.0506592;-0.00804901;0.0458145;0.0624847;0.065918;0.0746536;0.0310898;-0.0590897;0.0961685;-0.0360107
84;2;0.0195694;-0.00831604;0.0509644;0.0685883;0.0667191;0.0761032;0.0912094;-0.00209808;0.110893;0.0559998
84;3;-0.0167847;-0.00606537;0.0584793;0.0725555;0.0685501;0.0749969;0.126343;0.0596619;0.131378;0.0652313
84;4;-0.0106812;0.000190735;0.0582123;0.0757217;0.0720978;0.0718307;0.111351;0.143471;0.122986;0.0409317
84;5;-0.00038147;-0.00213623;0.0638962;0.0770187;0.0678253;0.0692749;0.101166;0.19165;0.0963974;0.0205994
84;6;-0.00171661;-0.000648499;0.0671768;0.0772476;0.069313;0.0754166;0.0588226;0.162239;0.102196;0.0585938
84;7;-0.00888824;-0.000801086;0.064621;0.0771713;0.0695419;0.0761414;0.0696564;0.102615;0.117836;0.168037
84;8;-0.0139236;0.00244141;0.0651169;0.071907;0.0677109;0.0780869;0.0722504;0.104332;0.119858;0.19825
84;9;-0.0209427;0.00133514;0.055542;0.0696564;0.0660706;0.064888;0.0665283;0.0300217;0.116348;0.159225
85;0;-0.00938416;-0.000610352;0.0569153;0.0694275;0.0618362;0.0597382;0.0648499;-0.121689;0.121117;0.127831
85;1;-0.00732422;0.00419617;0.0537491;0.0694656;0.0629807;0.0586319;0.0583267;-0.251694;0.0918961;0.105362
85;2;-0.00148773;0.00694275;0.0497818;0.0701523;0.0629807;0.0647354;0.0339127;-0.119667;0.0684357;0.0743103
85;3;-0.00484467;-0.000190735;0.0549316;0.071106;0.0605011;0.0714111;0.0745773;0.0365829;0.0873947;0.0872803
85;4;-0.021286;0.00312805;0.0534821;0.069046;0.0653839;0.0785446;0.0727844;0.179138;0.106964;0.10807
85;5;-0.0102997;0.00404358;0.0553894;0.0710678;0.0635529;0.073204;0.0664139;0.249939;0.114746;0.101433
85;6;0.00606537;0.000305176;0.0563812;0.0660324;0.0614166;0.0745773;0.0779343;0.245247;0.117531;0.0923157
85;7;0.0375366;0.0025177;0.0557327;0.0640106;0.0683212;0.0707626;0.0782013;0.203056;0.119362;0.140381
85;8;0.0304413;0.00392914;0.0568771;0.0653458;0.0661469;0.07061;0.0626755;0.143204;0.122147;0.0778961
85;9;-0.00762939;0.00846863;0.0543213;0.0685883;0.0709152;0.0716782;0.0606918;0.105515;0.0851059;0.00717163
86;0;0.029068;0.00320435;0.0538254;0.0741959;0.067215;0.0727081;0.0680161;0.150528;0.0407028;-0.0822449
86;1;-0.00125885;0.00751495;0.0535965;0.0693512;0.0695419;0.0648117;0.0722885;0.187531;0.05867;-0.0699234
86;2;-0.0665665;0.00900269;0.0555038;0.0722122;0.070343;0.0682068;0.0941849;0.213356;0.0953293;-0.0328827
86;3;-0.0867844;0.00339508;0.056572;0.0746155;0.0802612;0.0652313;0.0990295;0.161438;0.0973129;0.0336838
86;4;-0.0218964;0.00247955;0.0567245;0.071106;0.0763702;0.0613785;0.0928116;0.0723648;0.0779724;0.100479
86;5;0.0288773;-0.00534058;0.0605011;0.0705719;0.07164;0.0650787;0.071106;-0.113144;0.0760651;0.124893
86;6;0.0631332;-0.0152588;0.0635529;0.0698471;0.068512;0.075798;0.0753403;-0.0646591;0.0918961;0.116882
86;7;0.0680161;-0.0283432;0.0611877;0.0670624;0.0663757;0.0749207;0.072937;-0.00808716;0.104828;0.0848389
86;8;0.0180054;-0.0336456;0.0522614;0.063591;0.0711441;0.0772858;0.0553513;-0.0992203;0.102615;0.0875092
86;9;-0.102768;-0.0238037;0.0498581;0.0654602;0.0711823;0.0750351;0.0556183;-0.042305;0.0967026;0.107536
87;0;-0.058136;0.00850677;0.054245;0.0705338;0.0738907;0.0766754;0.0706482;0.0271988;0.100937;0.125198
87;1;0.0593185;0.0214767;0.0538254;0.0701523;0.0759125;0.0755692;0.0802994;0.070076;0.101357;0.143051
87;2;0.0662994;0.0120163;0.0550842;0.0712585;0.0737;0.0674438;0.0765228;0.117302;0.111809;0.159569
87;3;0.00362396;0.00591278;0.060463;0.0683212;0.0675201;0.0679398;0.0784302;0.130692;0.118637;0.184212
87;4;-0.0317383;0.00286102;0.0566101;0.0685501;0.067749;0.0676346;0.114212;0.116882;0.139847;0.149498
87;5;-0.0233078;0.00400543;0.0600433;0.0696182;0.0644684;0.0669098;0.116081;0.100746;0.128555;0.149002
87;6;-0.00656128;0.00915527;0.0602722;0.067749;0.0590134;0.0666428;0.0608444;0.0772858;0.100365;0.111389
87;7;0.00984192;0.00858307;0.0531387;0.0679398;0.0609207;0.0627136;0.0327682;0.101585;0.109978;0.0265121
87;8;0.0201035;0.0069809;0.0525665;0.0691605;0.0642014;0.0658417;0.0782776;0.103531;0.116653;0.0640106
87;9;0.0246429;0.00751495;0.0515747;0.0689697;0.0700378;0.0705719;0.0961304;0.101204;0.105133;0.102806
88;0;0.0474167;0.00415802;0.0547409;0.0711823;0.067749;0.0720596;0.0905228;0.111542;0.0949478;0.10807
88;1;0.0772095;0.00118256;0.0539017;0.0708008;0.0702667;0.0756454;0.0828552;0.0970078;0.0851059;0.0780106
88;2;0.0460052;-0.00240326;0.0540924;0.0722885;0.0659943;0.0735092;0.0808716;0.0916672;0.1091;0.14595
88;3;-0.0540543;-0.00171661;0.0548935;0.0775528;0.066452;0.0652313;0.065155;0.0744629;0.0849533;-0.013504
88;4;-0.0529099;-0.00377655;0.0533676;0.0738144;0.0661087;0.0588226;0.0458527;0.0663757;0.0804901;-0.0544739
88;5;0.0280762;-0.00873566;0.0496674;0.0748062;0.0641632;0.0653458;0.0615311;0.084877;0.0777435;-0.00591278
88;6;0.0404358;-0.00843048;0.0522232;0.0708008;0.0697327;0.0698471;0.0767517;0.10685;0.0841904;0.0373077
88;7;0.0133896;-0.00747681;0.0551605;0.0690079;0.0714111;0.0723648;0.0634766;0.126038;0.0687027;0.086174
88;8;-0.00133514;-0.00213623;0.053978;0.0679016;0.0696564;0.0750732;0.0352478;0.131226;0.0825882;0.107231
88;9;-0.0151443;0.00495911;0.0571442;0.0636292;0.0722504;0.0728989;0.0941849;0.0719452;0.123444;0.0783157
89;0;-0.00614166;0.00473022;0.0572205;0.0630569;0.0708389;0.075798;0.163612;-0.0766373;0.112991;0.084877
89;1;-0.0217438;0.00125885;0.0566101;0.061264;0.0724792;0.0724411;0.134659;-0.144005;0.0925827;0.136375
89;2;-0.0208664;-0.000801086;0.0569534;0.0641251;0.0658035;0.0704193;0.0196075;-0.0761414;0.0863647;0.245743
89;3;-0.00312805;-0.00873566;0.055275;0.0705719;0.0637436;0.0664139;-0.0228119;0.0485611;0.0899506;0.179901
89;4;0.0236893;-0.0056839;0.0534821;0.0691605;0.0639343;0.067749;0.0304794;0.112991;0.101776;0.0212479
89;5;0.0334549;-0.00675201;0.0563049;0.0672913;0.0608444;0.0711441;0.0831223;0.122032;0.127754;-0.0179672
89;6;-0.0250244;-0.00732422;0.0579453;0.0721359;0.0629807;0.0738907;0.0859833;0.0651169;0.116386;-0.0186539
89;7;-0.110016;-0.0019455;0.0594711;0.0725555;0.0650406;0.0725937;0.0865555;0.0346375;0.103645;-0.000228882
89;8;-0.0527573;0.00202179;0.0593948;0.0695038;0.0672531;0.0674438;0.0912476;0.033226;0.0940323;0.0336456
89;9;-0.0287247;0.00564575;0.056839;0.0733185;0.0682449;0.0676346;0.0802994;0.0680542;0.0884628;0.0736237
90;0;-0.0323486;0.00392914;0.057869;0.0717545;0.0615692;0.0720596;0.0745392;0.108376;0.112228;0.159721
90;1;-0.0260925;0.00385284;0.0595093;0.0684357;0.059433;0.0714493;0.0558472;0.130501;0.0933456;0.153275
90;2;-0.0136185;0.000495911;0.0563431;0.0676727;0.0636673;0.068512;0.0524521;0.131454;0.0804901;0.139275
90;3;-0.00427246;0.000343323;0.0580215;0.0693512;0.062561;0.0724792;0.0867462;0.128555;0.0725174;0.158043
90;4;0.00968933;0.00148773;0.0559998;0.0669861;0.0689316;0.0697708;0.127068;0.142555;0.0886917;0.100212
90;5;0.0194931;-0.000343323;0.0577545;0.0682068;0.0722122;0.0592804;0.0989914;0.122604;0.0894928;0.0469208
90;6;0.00576019;-0.00118256;0.0611115;0.0653458;0.0737381;0.0654602;0.0709915;0.075264;0.101357;0.0411224
90;7;-0.00881195;0.00656128;0.0601959;0.0649261;0.0716782;0.0620651;0.0625992;0.00965118;0.119743;0.104713
90;8;0.0112915;0.00812531;0.0579834;0.0666809;0.0705719;0.0686646;0.0690079;0.0404358;0.120316;0.119667
90;9;0.0230789;0.00522614;0.053978;0.0641632;0.0725555;0.0711823;0.0616455;0.0938797;0.123253;0.102959
91;0;0.0422287;-0.00366211;0.0502777;0.0663757;0.0708008;0.0676346;0.0564194;0.126419;0.127068;0.0501633
91;1;0.0313568;-0.00553131;0.0478745;0.0636292;0.0694656;0.0680923;0.0627899;0.102921;0.119705;0.0128174
91;2;0.0393295;-0.00579834;0.0481415;0.067749;0.0656509;0.0803757;0.0790405;0.0309372;0.121651;0.0215149
91;3;0.0180435;-0.00366211;0.0521469;0.0746918;0.0703812;0.0760651;0.0983429;0.046196;0.0920105;0.0518417
91;4;-0.0119781;0.00190735;0.0547791;0.073967;0.0696945;0.0748444;0.0956726;0.0915146;0.0204086;0.118408
91;5;0.00713348;0.00679016;0.0600052;0.0727081;0.0686646;0.0746918;0.0688553;-0.00602722;0.00793457;0.146217
91;6;0.0473404;0.00572205;0.0588989;0.070343;0.0697708;0.073967;0.0591278;-0.120811;0.0608826;0.142555
91;7;0.0645447;0.00305176;0.0577545;0.0674057;0.0672913;0.0778961;0.0647354;0.00782013;0.0942993;0.124016
91;8;0.0496292;0.00274658;0.0588989;0.0644684;0.0690842;0.0732422;0.0630569;0.128708;0.102158;0.110321
91;9;-0.0199127;-0.00202179;0.0540161;0.0602722;0.0687408;0.0663757;0.0708389;0.182304;0.111923;0.115128
92;0;-0.0426483;-0.0133133;0.0546646;0.0642395;0.0678635;0.0624847;0.0652695;0.251007;0.114899;0.162964
92;1;-0.0208664;-0.00694275;0.0525284;0.0691605;0.0695801;0.0621414;0.0613785;0.200615;0.121613;0.0634003
92;2;0.0120926;0.00499725;0.0609207;0.072937;0.0733566;0.0629425;0.0749207;0.00282288;0.10746;-0.0287628
92;3;0.0489044;0.0122833;0.0637436;0.0746918;0.0688553;0.0677109;0.098877;-0.221863;0.10582;0.0446701
92;4;0.0122452;0.0144577;0.0626755;0.0772858;0.0722885;0.0645065;0.108261;-0.262566;0.114136;0.103302
92;5;-0.0141525;0.0124741;0.0589371;0.0724411;0.0708008;0.0653458;0.0950241;-0.0562668;0.124321;0.130272
92;6;-0.00686646;0.00255585;0.0566101;0.0742722;0.0668716;0.07164;0.0860596;0.0673676;0.114326;0.0764465
92;7;-0.000915527;0.00461578;0.0571823;0.0776672;0.076561;0.0708008;0.0952148;0.173302;0.125694;0.0191116
92;8;0.00297546;0.0120926;0.0577927;0.0762939;0.0757599;0.0643539;0.0810623;0.220566;0.102997;0.0836563
92;9;-0.0609207;-0.0125504;0.051651;0.0689316;0.0714493;0.0658798;0.0363541;0.251312;0.0984192;0.0988388
93;0;0.0025177;-0.0224686;0.0531006;0.0642776;0.0679398;0.0687408;0.0101852;0.247231;0.109291;0.0956726
93;1;0.04879;-0.0101089;0.0587082;0.0644302;0.0720215;0.0714874;0.0701904;0.207405;0.0967407;0.0871658
93;2;-0.0853729;-0.00244141;0.057373;0.0698471;0.0712585;0.0708771;0.071907;0.145111;0.0973129;0.0490952
93;3;-0.268631;-0.00583649;0.0587845;0.0734329;0.0690079;0.0709534;0.0906754;0.1091;0.114708;0.0317383
93;4;-0.171967;-0.0117111;0.0527573;0.0696564;0.0684738;0.0680923;0.0806427;0.0922775;0.0973129;0.0514984
93;5;-0.0159836;-0.00614166;0.0499725;0.0736237;0.063858;0.0704193;0.0823593;0.0770187;0.085144;0.0828552
93;6;0.0427246;-0.00724792;0.0508499;0.0730515;0.0678253;0.0765228;0.0767136;0.0749969;0.0979614;0.0732422
93;7;0.0751114;-0.00160217;0.0544739;0.0675964;0.0644302;0.0712585;0.0678635;0.0882339;0.121574;0.0406647
93;8;0.147972;-0.00125885;0.0497055;0.0694275;0.0638962;0.0757217;0.0609589;0.0884628;0.102882;0.13546
93;9;0.121078;0.00610352;0.050354;0.0646973;0.0581741;0.0809479;0.0613785;0.0795364;0.0931931;0.172958
94;0;0.00911713;0.00289917;0.0506973;0.0646973;0.0563812;0.0808716;0.114441;0.0473785;0.10952;0.12867
94;1;-0.0407791;0.00495911;0.0499725;0.0622177;0.0576401;0.0794601;0.0957108;0.0158691;0.113792;0.128899
94;2;-0.0369263;0.00465393;0.0540543;0.0623322;0.0631332;0.076828;0.0695038;0.0362015;0.101967;0.0665665
94;3;0.0233841;0.00598907;0.0571442;0.0705338;0.0642395;0.0675583;0.0327682;0.0205612;0.0643921;-0.000114441
94;4;0.0536728;0.00938416;0.059433;0.0713348;0.0653458;0.0637054;0.0418472;0.0130463;0.0293732;0.0177765
94;5;0.0566483;0.00148773;0.0603867;0.0722885;0.0703812;0.062294;0.0697708;0.0492477;0.0560379;0.0731277
94;6;0.0434494;-0.0012207;0.0610733;0.0746536;0.0671387;0.0709152;0.0834274;0.062294;0.122261;0.0987625
94;7;0.010376;-0.00461578;0.0621033;0.0706482;0.0641632;0.0730515;0.0995255;0.0408173;0.140038;0.111885
94;8;0.00305176;0.00038147;0.0608444;0.069046;0.0718307;0.0727844;0.0609589;0.0209045;0.105476;0.121536
94;9;0.00347137;-0.000495911;0.0536728;0.0702667;0.0738525;0.0583267;0.0790787;0.00904083;0.103073;0.0782776
95;0;0.0185394;0.000152588;0.0537872;0.0700378;0.0683594;0.0682068;0.0891495;0.0289154;0.083313;0.0648499
95;1;0.0166702;0.00167847;0.0576401;0.0652695;0.0681686;0.071106;0.0899124;0.0453949;0.0855637;0.087738
95;2;-0.041275;0.00782013;0.0563049;0.0665283;0.0712204;0.0644684;0.101814;0.0362778;0.0909042;0.0729752
95;3;-0.0556564;0.00812531;0.0592804;0.066452;0.0685501;0.0721741;0.0971222;0.0115204;0.102425;0.0740814
95;4;-0.0252533;-0.000228882;0.0608444;0.0626373;0.0683212;0.0693512;0.0736237;0.032692;0.10994;0.0983047
95;5;-0.0148392;-0.00305176;0.0606537;0.0711441;0.0652313;0.0684357;0.0668335;0.0483704;0.0923157;0.100403
95;6;0.011673;-0.00164032;0.0590515;0.0738144;0.0658417;0.060997;0.0748444;0.0696182;0.0584793;0.114288
95;7;0.0353622;-0.00400543;0.0583267;0.0691605;0.0679779;0.0552368;0.0667191;0.132751;0.0693893;0.0756073
95;8;0.0196075;-0.000801086;0.0590897;0.07267;0.0659561;0.0613022;0.0727463;0.152397;0.10849;0.0777054
95;9;-0.0162506;-0.00247955;0.0563812;0.0701141;0.0697327;0.0650787;0.067749;0.12764;0.108452;0.0969696
96;0;-0.00297546;-0.00610352;0.0553894;0.0718307;0.0674438;0.0635147;0.0654602;0.0943756;0.0896454;0.119171
96;1;-0.0215912;-0.000648499;0.0543594;0.0730515;0.0691223;0.0654221;0.0700378;0.068779;0.111084;0.11528
96;2;-0.0257111;0.00347137;0.0548935;0.0715256;0.0702286;0.0690079;0.0666046;0.0305939;0.138092;0.0775528
96;3;-0.00976562;0.000953674;0.0516129;0.0704575;0.0692749;0.0666046;0.057106;-0.00816345;0.118828;0.0636292
96;4;0.00038147;-0.00225067;0.0530624;0.0671005;0.0684357;0.07164;0.0644302;0.0546646;0.121078;0.0872803
96;5;-0.0308228;0.00286102;0.0525665;0.0641251;0.0656128;0.0823975;0.0690079;0.100708;0.120621;0.0919342
96;6;-0.0223923;-0.000572205;0.0570297;0.0650024;0.0740433;0.0886154;0.074501;0.11425;0.114632;0.08358
96;7;0.0144196;0;0.0588226;0.0680161;0.0754547;0.0863647;0.0759506;0.111275;0.107079;0.0751114
96;8;0.0336456;0.00595093;0.0595474;0.0661087;0.0750351;0.082016;0.0775528;0.109024;0.0942993;0.106049
96;9;0.0117874;0.00686646;0.0499725;0.0634384;0.0743103;0.0753403;0.0719833;0.104485;0.0814056;0.145416
97;0;-0.01194;0.00923157;0.0505447;0.0658035;0.071907;0.0719452;0.0548553;0.109825;0.0648499;0.093689
97;1;-0.001297;0.00423431;0.0540924;0.07061;0.0732422;0.0702667;0.0707245;0.127068;0.0693893;0.0403976
97;2;0.0031662;7.63E-05;0.0536728;0.0735474;0.070343;0.0710297;0.103683;0.106888;0.0942993;0.00659943
97;3;0.00450134;-0.00362396;0.0567627;0.0729752;0.0674438;0.0691986;0.0898361;0.107231;0.11261;0.0330734
97;4;0.00267029;-0.00766754;0.058403;0.0772095;0.0661469;0.0623703;0.0545883;0.0997925;0.0866699;0.071373
97;5;0.00259399;-0.0324249;0.0564194;0.0692368;0.0608444;0.0632095;0.0697327;0.0973129;0.0811386;0.119972
97;6;0.0262451;-0.0481796;0.0576401;0.0674057;0.0609207;0.0656891;0.0792313;0.0982285;0.0999451;0.119743
97;7;0.0341034;-0.0173187;0.0554276;0.0662613;0.0662613;0.0639343;0.0743866;0.0284958;0.0910568;0.0972748
97;8;0.0344849;0.0131989;0.0613403;0.0684357;0.0716782;0.0666428;0.0833511;0.00930786;0.0979996;0.0880814
97;9;0.0185394;0.0235367;0.0569916;0.0667191;0.0701523;0.0727463;0.110054;0.0166702;0.123711;0.103226
98;0;-0.0121307;0.0185394;0.0617599;0.0671387;0.0696564;0.0693512;0.0696182;-0.014534;0.109787;0.0847626
98;1;-0.00293732;0.0138092;0.0613403;0.0649643;0.0648499;0.0672531;0.0644302;0.0134659;0.104485;0.0705719
98;2;-0.0151825;0.00621796;0.0608444;0.0682449;0.0647354;0.0699234;0.0853348;0.0517273;0.10437;0.0827026
98;3;-0.0924683;0.00354767;0.0569153;0.0738907;0.0628281;0.0704575;0.0857162;0.0391006;0.0984955;0.0867462
98;4;-0.0645828;0.0031662;0.0549316;0.0714874;0.063324;0.0670242;0.100746;0.0101471;0.0952148;0.083847
98;5;-0.0102997;0.000991821;0.0570297;0.0689697;0.0649643;0.0683975;0.0954056;0.0366592;0.114136;0.0695038
98;6;0.0151443;-0.000762939;0.0583649;0.0695801;0.0640106;0.0693512;0.0736237;0.0812912;0.135002;0.107269
98;7;0.0287247;0.0050354;0.0569916;0.0661469;0.0650024;0.0734329;0.0678635;0.107536;0.107117;0.258865
98;8;0.0232315;0.0140762;0.0579071;0.0714111;0.0723648;0.0759125;0.0432205;0.120735;0.0941467;0.164986
98;9;0.00465393;0.0094223;0.0504303;0.0686646;0.0774002;0.0748444;0.0420761;0.115356;0.0918579;-0.0406265
99;0;-0.00293732;0.000953674;0.0528336;0.0675964;0.0667953;0.0674438;0.0313187;0.108223;0.0720215;-0.127106
99;1;-0.00114441;0.00366211;0.052681;0.065918;0.0660324;0.0686646;0.0621033;0.0999451;0.0502396;-0.13237
99;2;0.00957489;-0.000114441;0.0507355;0.0637817;0.0666809;0.0614166;0.0851822;0.110359;0.0737;-0.0242233
99;3;0.0183868;-0.00255585;0.0528336;0.068512;0.0688934;0.0640869;0.0856018;0.0925446;0.0927734;0.0372314
99;4;-0.0159836;-0.00667572;0.0544739;0.0699997;0.0673676;0.0708008;0.0747681;0.0745392;0.104752;0.109634
99;5;-0.0217056;-0.00675201;0.0492477;0.0704956;0.0695038;0.0714493;0.0728989;0.0748825;0.111313;0.187874
99;6;0.00247955;-0.00499725;0.0515366;0.0730515;0.0692368;0.0685883;0.0768661;0.0743484;0.0938797;0.238342
99;7;-0.000228882;-0.0056076;0.0564194;0.0686264;0.0722885;0.0618362;0.0902557;0.0720596;0.0932693;0.114021
99;8;0.00392914;-0.00457764;0.0527191;0.0670242;0.0711823;0.0649261;0.119629;0.075798;0.11158;0.117798
99;9;0.00469208;-0.0038147;0.0515747;0.0668716;0.0729752;0.0741196;0.125198;0.0753403;0.135612;0.137596
100;0;0.000762939;-0.00324249;0.0547791;0.0716782;0.0730515;0.0723267;0.0933838;0.0690079;0.105438;0.108414
100;1;0.00919342;-0.000228882;0.0597382;0.0733185;0.0683975;0.0741196;0.0596237;0.057106;0.101204;0.120354
100;2;0.00667572;-0.00213623;0.055542;0.0717926;0.0647736;0.0719833;0.103378;0.0471115;0.112991;0.204391
100;3;0.00751495;-0.00476837;0.0586319;0.0724792;0.0653839;0.0749588;0.0178528;0.053215;0.124397;0.158882
100;4;0.00473022;-0.00312805;0.0592041;0.0738525;0.0641251;0.0723648;-0.0110626;0.0792694;0.108147;0.060463
100;5;0.0043869;0.00125885;0.0575256;0.0749207;0.0645447;0.0775528;0.0127792;0.0740051;0.0954437;-0.0642395
100;6;0.00713348;-0.00171661;0.0599289;0.0714111;0.0658035;0.0751877;0.0483322;0.0725555;0.0861359;-0.0178146
100;7;0.00587463;-3.81E-05;0.0576782;0.070076;0.0684738;0.0676346;0.0660706;0.0638962;0.0865555;0.0741959
100;8;0.00473022;0.00236511;0.0584412;0.0668716;0.0663757;0.0699997;0.0766373;0.0654984;0.0953674;0.122185
100;9;0.00576019;0.00476837;0.0496674;0.0616074;0.069313;0.0655746;0.0820923;0.056076;0.0966644;0.114632
101;0;0.00934601;-0.000762939;0.0531387;0.0707245;0.0659561;0.0663757;0.0865555;0.052948;0.0949478;0.0967407
101;1;0.010376;-0.00160217;0.0540924;0.0665283;0.0679398;0.069046;0.0938797;0.0526428;0.100212;0.0878143
101;2;0.00598907;0.000152588;0.0547028;0.0670242;0.0672913;0.069809;0.0951004;0.0569534;0.0960922;0.0855637
101;3;0.000190735;0.000305176;0.0579834;0.0667191;0.0633621;0.0719833;0.0908661;0.0695038;0.0812531;0.0818634
101;4;-0.00247955;-0.000534058;0.0581741;0.0642395;0.0653076;0.0776672;0.0930786;0.0663376;0.0862503;0.0613785
101;5;-0.00465393;3.81E-05;0.0605392;0.0681305;0.0629807;0.0792313;0.115929;0.0650406;0.115395;0.0559998
101;6;-0.0122833;0.000839233;0.0603867;0.067482;0.0636292;0.0805664;0.0952911;0.0659561;0.112343;0.0719452
101;7;-0.0171661;0.00106812;0.0569153;0.0673676;0.0683975;0.0749969;0.0870514;0.0784683;0.0968933;0.124474
101;8;-0.0229645;0.0037384;0.0571442;0.066185;0.0725937;0.0630951;0.0919342;0.0778198;0.0967407;0.203934
101;9;-0.02491;0.00453949;0.0537491;0.0640488;0.0749588;0.0617218;0.0813293;0.0842667;0.0841522;0.193634
102;0;0.00434875;-0.00312805;0.0576401;0.0683594;0.0719833;0.0605392;0.0572586;0.0782394;0.0833893;0.112305
102;1;0.00225067;0.000114441;0.057869;0.0688553;0.0694275;0.0593185;0.0498581;0.0791168;0.094223;0.027504
102;2;0.047226;0.00411987;0.0555801;0.0704575;0.0635529;0.0625229;0.0448608;0.0695038;0.102959;-0.0522614
102;3;0.0310516;-0.00370026;0.0576019;0.0721741;0.0639343;0.0703812;0.102463;0.0735474;0.0944138;-0.0306702
102;4;-0.00259399;-0.00572205;0.0566483;0.0681305;0.0660706;0.0683594;0.0876617;0.0819397;0.1054;0.0389099
102;5;-0.001297;-0.00591278;0.0556183;0.0698853;0.0655746;0.0646973;0.0789261;0.0811768;0.102158;0.0421906
102;6;0.0121307;-0.00518799;0.0591278;0.0705719;0.0670242;0.0726318;0.0862122;0.0751877;0.0968933;0.0512314
102;7;0.0378418;-0.00156403;0.0606155;0.0743866;0.0704956;0.0687408;0.0818634;0.0678635;0.0915909;0.0667191
102;8;0.0515366;0.00267029;0.0538254;0.0718689;0.0772095;0.07061;0.0880814;0.0677872;0.103569;0.0844574
102;9;-0.00205994;0.010643;0.0532913;0.0704193;0.0780106;0.0679016;0.0785065;0.0671387;0.110779;0.0811768
103;0;-0.0977325;0.0109863;0.0579071;0.0711441;0.0772476;0.0696945;0.054512;0.0681305;0.0917435;0.102882
103;1;-0.105743;0.0107956;0.0547028;0.0706863;0.0777817;0.071106;0.0544357;0.0537109;0.100327;0.11692
103;2;0.0133896;0.00904083;0.0550079;0.0704193;0.0762177;0.0645828;0.0539017;0.055275;0.100174;0.106812
103;3;0.0506592;0.00404358;0.0565338;0.0692749;0.068512;0.0711823;0.0601578;0.067482;0.104218;0.125809
103;4;0.0374603;0.000572205;0.0548172;0.0760651;0.0631332;0.0710678;0.0482559;0.0743866;0.0975418;0.133133
103;5;0.0177765;0.00511169;0.0538635;0.0718307;0.0589752;0.0687408;0.0498962;0.0691986;0.0876999;0.140991
103;6;-0.0321579;0.00156403;0.054512;0.0673676;0.055275;0.0693512;0.0598526;0.0654984;0.0934219;0.103989
103;7;-0.0087738;-0.0130844;0.0533295;0.0644302;0.062294;0.0706863;0.07061;0.0735855;0.0999832;0.0890732
103;8;0.0928116;-0.0113297;0.0521088;0.0689316;0.067215;0.0743866;0.0691986;0.0737;0.104103;0.088768
103;9;0.123672;-0.00965118;0.0502777;0.0686646;0.0716782;0.0793076;0.0625229;0.0790787;0.102005;0.073204
104;0;-0.0392532;-0.00724792;0.0485992;0.0719452;0.0696945;0.0723648;0.0671387;0.0793839;0.104561;0.0799179
104;1;-0.0616074;-0.0056839;0.0494385;0.0715637;0.0714874;0.0766754;0.089035;0.0848389;0.105171;0.085144
104;2;-0.141716;-0.00961304;0.0524139;0.0723648;0.0717926;0.0745773;0.0883102;0.0846481;0.101089;0.0827026
104;3;-0.171432;-0.00484467;0.0559616;0.0752258;0.0777817;0.0673676;0.0881195;0.079689;0.101051;0.0748062
104;4;-0.124817;0.0038147;0.056839;0.0724792;0.0751495;0.0677872;0.0819397;0.075531;0.0989914;0.0764847
104;5;-0.0482178;0.00225067;0.0583649;0.0677872;0.0665283;0.0692749;0.0880051;0.0737;0.0931549;0.0787735
104;6;0.0185776;-0.00846863;0.056572;0.0639343;0.0636292;0.0721359;0.0928116;0.0741196;0.0962067;0.0842285
104;7;0.0758743;-0.00720978;0.0608063;0.0629807;0.0663376;0.0695801;0.032692;0.0718689;0.0955582;0.0847244
104;8;0.117645;-0.00118256;0.0615692;0.0625229;0.0656509;0.0674057;-0.00217438;0.0696945;0.0935745;0.0791168
104;9;0.0308228;0.0143814;0.0600433;0.0617218;0.0735474;0.0688934;0.0717545;0.070076;0.0972748;0.0756454
105;0;-0.112076;0.0167084;0.0629044;0.0654984;0.0693512;0.0710297;0.0922394;0.0695801;0.099144;0.0776291
105;1;-0.0438309;0.0147247;0.0650406;0.0669098;0.0733948;0.0764847;0.0888062;0.0718689;0.0983047;0.0799179
105;2;0.0366974;0.00938416;0.0668335;0.0703812;0.0647354;0.0725937;0.0971222;0.0687027;0.0991821;0.0797272
105;3;0.0600052;0.0037384;0.0598145;0.069809;0.0597;0.0689697;0.106926;0.0717545;0.100479;0.0762939
105;4;0.0666428;0.00423431;0.057869;0.0714493;0.0560379;0.0684357;0.112953;0.0732803;0.099678;0.0777817
105;5;0.0695038;0.000762939;0.0608826;0.0720978;0.0518417;0.0641632;0.0929642;0.0631714;0.0985336;0.0705719
105;6;0.0728989;-0.00102997;0.0597382;0.0749969;0.0498962;0.0660324;0.0960541;0.0659943;0.095253;0.0751495
105;7;0.0689697;-0.00335693;0.0603867;0.0732803;0.0528717;0.0645828;0.108986;0.0681686;0.0980759;0.0811386
105;8;0.0569916;-0.00572205;0.0550461;0.0717926;0.0589752;0.0697708;0.125389;0.0689316;0.100937;0.0867462
105;9;0.0390244;0.0025177;0.0478745;0.0673294;0.066452;0.0702667;0.108261;0.0746918;0.103264;0.0892639
106;0;0.0314713;-0.000495911;0.0514984;0.070076;0.0657654;0.0695038;0.0391006;0.0698853;0.103073;0.0873184
106;1;0.0159836;-0.00484467;0.0501633;0.0713348;0.0669098;0.065155;-0.00514984;0.0717545;0.104675;0.0862885
106;2;0.0082016;-0.00476837;0.0494385;0.0716782;0.0689697;0.0627518;0.0382614;0.0665283;0.099678;0.0866318
106;3;0.00209808;-0.00442505;0.0521088;0.0760269;0.0750351;0.0676727;0.0875092;0.0691605;0.0992203;0.0768661
106;4;-0.00938416;-0.000762939;0.0479507;0.0746536;0.0758743;0.0691223;0.0826263;0.0647736;0.0980759;0.0782394
106;5;-0.0143433;0.00419617;0.0486755;0.0730896;0.069046;0.0669861;0.0922775;0.0681305;0.0960541;0.095787
106;6;0.00205994;-0.00209808;0.0500107;0.0689697;0.0644302;0.0736618;0.090065;0.063591;0.100746;0.101166
106;7;0.0044632;-0.00522614;0.051651;0.0707245;0.066185;0.0716019;0.0392532;0.0670242;0.0973129;0.103951
106;8;-0.0122833;-0.00514984;0.0544357;0.0676727;0.0675964;0.0695038;-0.0354767;0.0718307;0.0934982;0.0997925
106;9;-0.039978;0.00087738;0.0526047;0.064621;0.0759888;0.0656128;-0.000839233;0.0666809;0.0972366;0.0951004
107;0;-0.0497055;0.00179291;0.0538254;0.0698853;0.072403;0.0665283;0.0492096;0.0669098;0.0950241;0.0888443
107;1;-0.0490189;-0.00175476;0.0583267;0.0636292;0.072403;0.0684357;0.0783157;0.0681686;0.0980377;0.0889587
107;2;-0.0418854;-0.00270844;0.0580597;0.0649643;0.0755692;0.0717926;0.0941086;0.0706863;0.1017;0.0810242
107;3;-0.0397873;-0.00286102;0.0590897;0.0646973;0.074501;0.0727844;0.100861;0.0759506;0.102272;0.0674438
107;4;-0.0363922;-0.00110626;0.0578308;0.0617599;0.0751114;0.0743866;0.0991821;0.0745392;0.099678;0.0643158
107;5;-0.0352097;-0.000534058;0.057869;0.0642776;0.0714874;0.0780869;0.101891;0.0763321;0.0971222;0.0611496
107;6;-0.0296402;-0.00114441;0.0567627;0.06073;0.0694656;0.0695801;0.102158;0.0712585;0.098114;0.060997
107;7;-0.0181198;-0.00328064;0.0593567;0.0629807;0.0757217;0.0671005;0.0979996;0.0730133;0.0986862;0.0701904
107;8;-0.010376;-0.00400543;0.0590134;0.0639343;0.0732803;0.0699234;0.089035;0.0750732;0.0975418;0.0839996
107;9;-0.00343323;0.00164032;0.0543976;0.0632858;0.079689;0.0712967;0.0871277;0.0737;0.0924683;0.0881577
108;0;-0.00160217;0.00305176;0.0584412;0.0678635;0.0765228;0.0670624;0.0901031;0.0787735;0.0989914;0.0899887
108;1;0.000114441;-0.000648499;0.0537109;0.0712585;0.0800705;0.0714493;0.092659;0.0772476;0.113297;0.0911713
108;2;-0.00450134;-0.00404358;0.0530624;0.0661469;0.072937;0.0712204;0.130997;0.0785828;0.111275;0.0892639
108;3;0.000801086;-0.0038147;0.0571442;0.0677109;0.0642776;0.075531;0.11692;0.078392;0.0987625;0.107079
108;4;0.00282288;-0.00293732;0.0553513;0.0679398;0.0616074;0.069809;0.0881195;0.0642395;0.0993347;0.122108
108;5;0.013237;-0.000991821;0.0592804;0.0703049;0.0623322;0.0726318;0.0456619;0.0598145;0.0951767;0.101089
108;6;0.0171661;0.000152588;0.0598526;0.074234;0.0592041;0.0723648;0.0349426;0.0672913;0.0871277;0.0852966
108;7;0.01091;0.000915527;0.0618362;0.0753784;0.0669479;0.0702667;0.0149155;0.0701904;0.100708;0.0902939
108;8;0.0117493;0.001297;0.059433;0.0743484;0.0662231;0.0644302;0.0141907;0.0719452;0.118256;0.0815582
108;9;0.00957489;0.00152588;0.0504303;0.0708008;0.0696945;0.0688553;0.0717926;0.0790024;0.104218;0.068512
109;0;0.0167084;0.00354767;0.0535965;0.0705338;0.0592804;0.0679016;0.0893402;0.0682831;0.0911713;0.0821686
109;1;0.0183868;0.00785828;0.0513077;0.0714493;0.0468826;0.0713348;0.105286;0.0635147;0.0860596;0.103111
109;2;0.0179291;0.00831604;0.0512314;0.0741959;0.0594711;0.0708771;0.0992966;0.0557709;0.0917053;0.0998306
109;3;0.0263977;0.00125885;0.0528717;0.0698471;0.0616074;0.0712585;0.0786972;0.0548172;0.0886536;0.0918961
109;4;0.0177383;0.00400543;0.0575638;0.0676346;0.0566101;0.0669479;0.062294;0.057869;0.0927353;0.0943375
109;5;0.0183105;0.00621796;0.0597763;0.0740433;0.0522995;0.0671005;0.0674438;0.0549316;0.0978851;0.0844955
109;6;0.0151062;0.0025177;0.0596237;0.0756454;0.0605392;0.0748062;0.0615311;0.0596237;0.100021;0.0595474
109;7;0.00705719;-0.00324249;0.0592804;0.0741196;0.0803375;0.0678635;0.0616074;0.0672531;0.100899;0.0532913
109;8;0.00125885;-0.000267029;0.0577545;0.0736237;0.0774384;0.0730515;0.0625229;0.0701141;0.0988388;0.0623703
109;9;-0.00259399;0.00556946;0.0533295;0.0667191;0.0688171;0.0664139;0.0677109;0.0737381;0.103035;0.0697327
110;0;-0.00453949;0.00125885;0.0598526;0.0690079;0.0639343;0.0707245;0.0678635;0.0849533;0.0973511;0.0617981
110;1;-0.00572205;-0.00305176;0.0562286;0.0693512;0.0587845;0.0710678;0.0666046;0.0819016;0.100327;0.0676346
110;2;-0.00530243;0;0.0567245;0.0711441;0.0793457;0.0702667;0.070343;0.0803375;0.103607;0.0746155
110;3;-0.00190735;-3.81E-05;0.0597;0.0690842;0.0850296;0.0751877;0.0768661;0.08564;0.102005;0.0816345
110;4;-0.000915527;-0.000114441;0.056076;0.0675201;0.0753021;0.0750732;0.0767899;0.0845337;0.102501;0.102768
110;5;-0.00564575;0.0038147;0.0562286;0.0687408;0.0717545;0.0732422;0.0756836;0.0825119;0.100899;0.112648
110;6;-0.00217438;0.000305176;0.0585938;0.0693512;0.0657272;0.07164;0.0726318;0.0816727;0.101357;0.109634
110;7;-0.00110626;-0.00370026;0.05867;0.07061;0.0675583;0.072403;0.0746155;0.0812912;0.097084;0.0966263
110;8;-0.00282288;-0.00263214;0.0597382;0.0667953;0.07267;0.0684738;0.0737;0.0760269;0.103416;0.0882721
110;9;-0.0094223;-0.00164032;0.0510788;0.0628281;0.0760651;0.0682449;0.0664139;0.0767899;0.0990677;0.0772095
111;0;-0.00244141;-0.0043869;0.0514603;0.0660324;0.0688934;0.0710678;0.069809;0.0758743;0.0997543;0.0721359
111;1;-0.00148773;0.000686646;0.0573349;0.0682831;0.0679398;0.0675964;0.0727463;0.065155;0.0993347;0.0778198
111;2;0.000190735;0.00232697;0.0566864;0.069046;0.0677872;0.0691605;0.0776672;0.0662613;0.0922394;0.0831223
111;3;0.00247955;0.00213623;0.0601959;0.0727463;0.0682831;0.0707245;0.0819016;0.0650406;0.0933075;0.0850677
111;4;0.00175476;0.00038147;0.0574112;0.069809;0.0635147;0.0688934;0.0827408;0.0661087;0.0945282;0.0839996
111;5;0.0012207;-0.00545502;0.0540924;0.0691986;0.0650024;0.0678253;0.0850677;0.0676346;0.0981522;0.083847
111;6;0.00347137;-0.0038147;0.0602722;0.0690842;0.06073;0.0655746;0.0829315;0.0666809;0.0994492;0.0894547
111;7;-0.00209808;-0.0019455;0.0534821;0.0696564;0.0635529;0.0640488;0.0829697;0.0658417;0.0979996;0.0835037
111;8;-0.00137329;-0.00087738;0.0525665;0.0713348;0.0677872;0.0679779;0.0751877;0.0714111;0.0975418;0.0711823
111;9;-0.00541687;0.00240326;0.0521851;0.0675201;0.0670242;0.0671768;0.0725174;0.0688171;0.0979233;0.0753021
112;0;0.00255585;-0.00274658;0.0545883;0.0673294;0.0656509;0.0692368;0.0724411;0.0689697;0.0990677;0.0819778
112;1;-0.00133514;-0.00236511;0.0564957;0.0699997;0.0610733;0.0709915;0.073967;0.0693893;0.100594;0.0901413
112;2;-0.00167847;0.00209808;0.0576019;0.0702286;0.0767899;0.0711823;0.0747681;0.0694656;0.099678;0.094986
112;3;-0.000267029;0.00282288;0.0585556;0.0720215;0.0644684;0.0686264;0.0722885;0.0699997;0.0969696;0.0960922
112;4;-0.00221252;-0.0037384;0.0541306;0.0731277;0.0539398;0.0658798;0.0755692;0.0679779;0.0945663;0.0896835
112;5;-0.00289917;-0.00461578;0.0517654;0.0743866;0.0498581;0.0640106;0.0741196;0.0669479;0.0957108;0.0925446
112;6;-0.00148773;0.00343323;0.0572205;0.0753784;0.0585175;0.0702667;0.0757217;0.0683594;0.0961685;0.0874329
112;7;-0.00087738;0.00110626;0.0549316;0.0669861;0.0751877;0.0707626;0.0824356;0.0692368;0.0975037;0.084877
112;8;-0.00312805;-0.0106049;0.0514603;0.0658417;0.083847;0.069046;0.0803757;0.0694656;0.100746;0.0835419
112;9;-0.0113297;-0.0031662;0.0503922;0.0679016;0.0726318;0.0668716;0.0716782;0.0704193;0.101128;0.0839615
113;0;-0.00480652;0.00209808;0.0537109;0.0644684;0.0907516;0.0652313;0.0687027;0.0696182;0.0987625;0.0807953
113;1;-0.0018692;-3.81E-05;0.0624466;0.0659561;0.0857925;0.0652313;0.0656891;0.0701523;0.0983047;0.0801086
113;2;-0.00225067;-0.0108719;0.0696945;0.0636673;0.0728989;0.0675201;0.0697708;0.0696564;0.0986099;0.0797272
113;3;0.00144958;-0.0151443;0.0660706;0.0641632;0.0709534;0.0696182;0.0746536;0.071907;0.0992584;0.090332
113;4;0.00831604;-0.0094223;0.0196075;0.0663757;0.0671387;0.0737762;0.0710678;0.0732803;0.0967789;0.0931168
113;5;0.00480652;-0.00724792;0.0395584;0.0674438;0.0558853;0.0772095;0.0764847;0.0735474;0.0983429;0.0902939
