Frame,Sub Frame,RF,BF,MG,LG,AT
1,0,0.00110626,0.00621796,0.0482941,0.0630188,0.0455093
1,1,-0.00141144,0.00190735,0.0514603,0.0650024,0.046463
1,2,-0.00347137,-0.00286102,0.0484467,0.0641632,0.158195
1,3,-0.00431061,-0.00247955,0.0542068,0.0593948,0.123711
1,4,-0.00102997,0.00106812,0.0566864,0.0611877,0.0537109
2,0,-0.00198364,-0.000801086,0.0576782,0.0635147,-0.0205612
2,1,-0.00038147,0,0.0593185,0.0629044,0.0295639
2,2,-0.00148773,0.000953674,0.0579834,0.0654221,0.0541306
2,3,-0.00152588,-0.000686646,0.0613403,0.0643921,-0.0138474
2,4,-0.00389099,0.000457764,0.0637054,0.0640488,0.0360489
3,0,-0.00289917,-0.00320435,0.060463,0.0650787,0.100327
3,1,-0.00164032,-0.0025177,0.0603867,0.0654221,0.122223
3,2,0.00179291,0.00358582,0.0615311,0.0688171,0.11261
3,3,0.000457764,-0.00164032,0.0630951,0.0701141,0.103874
3,4,-0.00282288,-0.00118256,0.0590134,0.0662231,0.086937
4,0,-0.00202179,-0.00102997,0.0541687,0.0663757,0.0643539
4,1,-0.00328064,-0.00354767,0.0554276,0.0645828,0.0530243
4,2,0.00137329,-0.000762939,0.055275,0.0680542,0.0683594
4,3,0.00549316,-0.001297,0.0582123,0.0652695,0.0510025
4,4,0.00926971,-0.00377655,0.057373,0.0650406,0.0499344
5,0,0.00370026,0.0025177,0.0546265,0.0614929,-0.0325775
5,1,-0.00404358,0.000801086,0.0519943,0.0582123,0.0030899
5,2,-0.00736237,-0.00400543,0.0519562,0.0572205,0.0466919
5,3,-0.00434875,-0.00377655,0.0536728,0.0588608,0.0378418
5,4,-0.00198364,0.00366211,0.0585556,0.0634003,0.064621
6,0,-0.000839233,0.00492096,0.0601578,0.0688553,0.0935745
6,1,-0.00423431,0.00274658,0.0609589,0.0642776,0.135803
6,2,-0.00152588,0.00038147,0.0621414,0.0647354,0.164413
6,3,-0.0037384,0.00144958,0.0626373,0.0637817,0.138283
6,4,0.000152588,-0.000801086,0.0580597,0.0626373,0.108643
7,0,0.00591278,-0.00190735,0.0543976,0.0605011,0.092926
7,1,0.00400543,-3.81E-05,0.0571442,0.0658417,0.0724792
7,2,0.00598907,0.00366211,0.0621033,0.0701904,-0.00335693
7,3,0.0123596,0.00553131,0.0611496,0.0704193,-0.114822
7,4,0.0204849,-0.000343323,0.0561142,0.0656509,-0.0275421
8,0,0.0239182,-0.00263214,0.0508881,0.0649261,0.0334549
8,1,0.0194168,-0.00286102,0.0529099,0.0644684,-0.00278473
8,2,-0.00461578,-0.000495911,0.0547409,0.067482,0.0345993
8,3,-0.0120163,0.000152588,0.0527954,0.0637817,0.0958633
8,4,-0.00484467,0.00595093,0.054245,0.0635147,0.10807
9,0,0.00705719,0.00774384,0.0559998,0.0654602,0.127296
9,1,0.00305176,0.0018692,0.0538635,0.0611877,0.143852
9,2,0.0157928,0.000152588,0.047493,0.0572205,0.160904
9,3,0.0102615,-0.00400543,0.0460434,0.0580978,0.128937
9,4,0.000839233,-0.000953674,0.0503159,0.0598145,0.0568771
10,0,-0.00541687,0.00606537,0.0561523,0.065918,0.0696182
10,1,-0.00652313,0.00297546,0.0585556,0.0662231,0.0551224
10,2,-0.00617981,-0.00160217,0.0557327,0.0646973,0.0371552
10,3,-0.00839233,-0.00370026,0.0598907,0.0654602,0.141258
10,4,-0.0139999,-0.00442505,0.0659561,0.069046,0.18158
11,0,-0.0257111,-0.00469208,0.072403,0.0708008,0.252838
11,1,-0.0295258,0.00217438,0.0730133,0.0733185,0.165749
11,2,-0.00812531,0.00110626,0.0723648,0.0729752,-0.10601
11,3,0.0134277,0.00583649,0.0643539,0.0679016,-0.0590134
11,4,0.00469208,0.00247955,0.0576019,0.0636673,-0.014267
12,0,-0.00614166,-0.00225067,0.0542831,0.060463,0.00133514
12,1,-0.00301361,-0.00148773,0.0543976,0.0626373,0.01194
12,2,0.00141144,-0.00461578,0.0554276,0.0576019,0.0184631
12,3,0.00717163,-0.00297546,0.0497437,0.0561905,0.0355148
12,4,0.0101852,0.0019455,0.0470352,0.0593185,0.0563812
13,0,0.0157166,0.00743866,0.0476837,0.0601578,0.067215
13,1,0.0113678,0.00423431,0.0485992,0.0598907,0.0480652
13,2,-0.000953674,0.000495911,0.0479889,0.0569534,0.034256
13,3,-0.00717163,0.00225067,0.0469208,0.0566864,0.054512
13,4,-0.0019455,0.00343323,0.0481796,0.0570679,0.0619888
14,0,-0.00854492,0.00274658,0.0529099,0.0597,0.0605011
14,1,-0.0117493,0.00293732,0.0521088,0.0599289,0.0948715
14,2,-0.0125504,-0.000953674,0.0518036,0.0604248,0.143013
14,3,-0.0164413,-0.00431061,0.052948,0.060997,0.134697
14,4,-0.0246429,-0.00686646,0.0543976,0.0623322,0.113983
15,0,-0.0257492,-0.0149155,0.0558853,0.0640106,0.107613
15,1,-0.0153351,-0.013504,0.0596619,0.0682831,0.104752
15,2,3.81E-05,-0.00720978,0.0683975,0.0747681,0.0742722
15,3,0.0137329,-0.00385284,0.0708008,0.0792313,-0.0530243
15,4,0.0256348,-0.00263214,0.0669479,0.0735092,-0.115242
16,0,0.0330734,-0.00263214,0.0685501,0.0733566,-0.000610352
16,1,0.0332642,0.00267029,0.0688171,0.0695801,0.0526047
16,2,0.0284958,0.00583649,0.0659943,0.0669861,0.0695801
16,3,0.0262451,0.0108719,0.0601959,0.0683975,0.0639343
16,4,0.0268173,0.0156784,0.0601578,0.0656128,0.0762939
17,0,0.0252151,0.0150681,0.0580597,0.0650406,0.105324
17,1,0.00858307,0.00400543,0.0508499,0.0615311,0.11055
17,2,-0.00167847,-0.00431061,0.0505447,0.0588989,0.107079
17,3,-0.00846863,-3.81E-05,0.047226,0.0559998,0.109711
17,4,-0.00843048,0.00167847,0.0498962,0.0597382,0.117264
18,0,-0.0160599,-0.00282288,0.0542831,0.061264,0.133057
18,1,-0.0211716,-0.00511169,0.0555038,0.0664139,0.103989
18,2,-0.0192642,0.00137329,0.0580597,0.064888,0.0660706
18,3,-0.0127411,0.00320435,0.0580597,0.0645065,0.0895691
18,4,-0.0117111,0.00362396,0.0574493,0.0651932,0.0892639
19,0,-0.0062561,-0.00164032,0.0553513,0.0634766,0.0925446
19,1,-0.00534058,0.000495911,0.0610352,0.062561,0.0264359
19,2,-0.00278473,0.00476837,0.0635147,0.067215,0.0215149
19,3,0.00190735,0.00774384,0.0682449,0.0702667,0.0622559
19,4,-0.00301361,0.00770569,0.0650787,0.0696564,0.102386
20,0,-0.00320435,-0.000801086,0.0629807,0.0659943,0.0695801
20,1,3.81E-05,-0.00579834,0.0648117,0.0648117,0.0135422
20,2,0.00160217,-0.0113678,0.0628662,0.0665283,0.0135803
20,3,0.00225067,-0.0124359,0.0641251,0.0654984,0.0233841
20,4,0.00152588,-0.00736237,0.0596237,0.0654984,0.0466919
21,0,0.00679016,-0.00461578,0.0561523,0.0658798,0.067215
21,1,0.00610352,-0.00507355,0.0562668,0.063324,0.0629044
21,2,0.00263214,-0.00476837,0.0498199,0.0588226,0.0727081
21,3,0.00148773,-0.00461578,0.0458527,0.0567627,0.0738907
21,4,0.00301361,0.00152588,0.0479126,0.0572968,0.0905228
22,0,0.0062561,0.00183105,0.0488663,0.0606918,0.171547
22,1,0.00263214,0.000190735,0.0508499,0.0618744,0.209961
22,2,0.00343323,-0.00209808,0.0502014,0.0614548,0.209961
22,3,0.00465393,-0.000762939,0.047493,0.062294,0.15667
22,4,0.00228882,-0.000267029,0.0527954,0.0634384,-0.0405121
23,0,0.00156403,0.001297,0.0539017,0.0639343,-0.174789
23,1,0.00534058,0.00591278,0.0528717,0.064888,-0.320282
23,2,0.00854492,0.0112915,0.0572586,0.070076,-0.279999
23,3,0.00980377,0.0115204,0.0629044,0.0721359,-0.100021
23,4,0.00457764,0.0133896,0.0614548,0.0708771,0.0119781
24,0,0.00225067,0.015831,0.0589371,0.0657272,0.132751
24,1,-0.00148773,0.00984192,0.0528336,0.060463,0.20031
24,2,-0.000648499,0.00282288,0.0461578,0.0590515,0.219955
24,3,-0.00217438,-0.000152588,0.0494003,0.0585938,0.254898
24,4,-0.000762939,0.000648499,0.0510025,0.0618744,0.269585
25,0,-0.000114441,-0.00164032,0.0598145,0.0668335,0.277939
25,1,-0.00347137,-0.0056839,0.0606155,0.0664902,0.259247
25,2,-0.00793457,-0.010643,0.0584793,0.0610733,0.186043
25,3,-0.00583649,-0.0132751,0.0583649,0.0611877,0.0163269
25,4,-0.00236511,-0.00778198,0.0562286,0.0646591,0.0205231
26,0,-0.00228882,-0.0038147,0.0603867,0.0709152,0.0728226
26,1,-0.00217438,-0.000915527,0.0633621,0.069809,0.062294
26,2,-0.000572205,-0.00171661,0.062561,0.0696564,0.0489807
26,3,-0.00343323,0.00782013,0.0597,0.0660706,0.0353241
26,4,-0.00156403,0.00415802,0.0561905,0.0599289,0.0295639
27,0,-0.00289917,-0.00232697,0.0518417,0.057869,0.0353622
27,1,-0.00263214,3.81E-05,0.0489044,0.0580978,0.0467682
27,2,0.00511169,0.00473022,0.0544739,0.0621414,0.063324
27,3,0.00419617,-0.000495911,0.0537491,0.0584412,0.0416183
27,4,0.0018692,-0.00087738,0.0493622,0.0571442,0.056572
28,0,-0.00175476,-0.00537872,0.0467682,0.0533676,0.0574493
28,1,-0.000991821,-0.00762939,0.0469971,0.0572205,0.028801
28,2,-0.00179291,-0.00431061,0.0493622,0.0626755,-0.0891495
28,3,-0.000686646,-0.00545502,0.0537109,0.0626755,-0.0315094
28,4,0.0012207,-0.00415802,0.0559616,0.063324,0.0460815
29,0,0.0025177,-0.000190735,0.0656891,0.0722504,0.0486374
29,1,0.001297,-0.00183105,0.0741577,0.0769806,0.0749969
29,2,-0.00442505,-0.000419617,0.0745773,0.0736618,0.0711441
29,3,-0.000915527,0.00751495,0.0712585,0.0718689,0.0373459
29,4,-7.63E-05,0.0102234,0.0632858,0.0693893,0.0518417
30,0,0.00232697,0.00591278,0.0629807,0.0678635,0.0893784
30,1,0.00152588,-0.00148773,0.0606918,0.0649643,0.0954437
30,2,0.00247955,-0.00354767,0.0556946,0.0634384,0.0868988
30,3,0.000762939,-0.00385284,0.0560379,0.0626373,0.0673676
30,4,0.00301361,-0.00617981,0.0563049,0.0621414,0.062027
31,0,0.001297,-0.0177765,0.0533295,0.063324,0.0697327
31,1,0.00190735,-0.0101471,0.0591278,0.0627518,0.0782776
31,2,0.00545502,0.0204849,0.0548935,0.0644302,0.0895691
31,3,0.00659943,0.0422287,0.0531769,0.0630951,0.0922012
31,4,0.00476837,0.0282669,0.050621,0.0621414,0.0801468
32,0,-0.001297,0.0311661,0.049324,0.0616837,0.0717163
32,1,-0.00202179,0.0378418,0.0519562,0.0632477,0.0720978
32,2,-0.000114441,0.000839233,0.0534439,0.0613022,0.0680542
32,3,-0.00339508,-0.0494003,0.0514984,0.0613785,0.0750351
32,4,-0.00110626,-0.0648117,0.0535202,0.0632095,0.0858688
33,0,-0.00038147,-0.0621033,0.0537491,0.0631332,0.0940704
33,1,-0.00144958,-0.0431824,0.0514984,0.0622177,0.0950241
33,2,-0.00572205,0.0030899,0.0496292,0.0597763,0.0891876
33,3,-0.00579834,0.0922775,0.053215,0.0607681,0.0817108
33,4,-0.00312805,0.142555,0.0608444,0.0663376,0.0698853
34,0,0.00244141,0.0422287,0.0658417,0.0711823,0.065155
34,1,0.00190735,-0.0940704,0.0667953,0.0690079,0.043335
34,2,0.00366211,-0.0736618,0.0656891,0.0682068,0.0431061
34,3,0.00556946,-0.0354004,0.0556946,0.0663757,0.0610352
34,4,0.000267029,-0.0188828,0.0558853,0.064621,0.0713348
35,0,-0.00137329,-0.0152588,0.0529099,0.0627136,0.0687408
35,1,-0.00213623,-0.00598907,0.0551605,0.0611496,0.0675201
35,2,0.00495911,0.0107193,0.055542,0.0642014,0.0737381
35,3,0.00759125,0.0234222,0.0585556,0.0683975,0.0701904
35,4,0.00141144,0.0243759,0.0556183,0.0616455,0.0618744
36,0,-0.00125885,0.015564,0.0531006,0.0631714,0.0531769
36,1,-0.00213623,0.00507355,0.0535202,0.0637817,0.0505447
36,2,-0.001297,-0.000610352,0.0541306,0.0605011,0.0497818
36,3,-0.00289917,0.00244141,0.0499725,0.0588608,0.0489044
36,4,-0.00389099,0.0119781,0.0506592,0.0600052,0.0642776
37,0,0.000228882,0.0167084,0.059433,0.0632858,0.0716782
37,1,7.63E-05,0.0190353,0.0603485,0.0688171,0.0510788
37,2,-0.00175476,-0.0012207,0.0555038,0.0596619,0.0321579
37,3,-0.0062561,-0.0143814,0.0553513,0.0616837,0.0522995
37,4,-0.00621796,-0.00911713,0.0588226,0.0654602,0.0708008
38,0,-0.00213623,0.00553131,0.0622177,0.0680923,0.0807953
38,1,0.00396729,0.0111008,0.0630188,0.0675964,0.0747681
38,2,0.00377655,-0.0166702,0.0617218,0.0660706,0.0753784
38,3,0.00812531,-0.0460815,0.0595474,0.0660706,0.075798
38,4,0.00762939,-0.0457382,0.0602722,0.0648499,0.0740433
39,0,0.00644684,-0.0128555,0.0588608,0.0598907,0.0682068
39,1,0.00263214,0.0069809,0.0566483,0.0624466,0.066452
39,2,0.00572205,0.0477219,0.0593185,0.0670242,0.0706863
39,3,0.00576019,0.018959,0.0577164,0.0698853,0.0729752
39,4,0,-0.00354767,0.0539017,0.0657654,0.0743103
40,0,-0.00339508,0.0151825,0.0508118,0.0655746,0.0693512
40,1,-0.00297546,0.0304413,0.0535583,0.0663376,0.0683212
40,2,-0.00263214,0.0432205,0.0567627,0.0658798,0.0635529
40,3,-0.00240326,0.0468063,0.0526428,0.0637817,0.0683975
40,4,-7.63E-05,0.0172424,0.0551605,0.0626755,0.0650787
41,0,0.00190735,-0.00331879,0.0536728,0.0629044,0.0660324
41,1,0.000419617,0.0087738,0.0548553,0.0626755,0.0671768
41,2,-0.00328064,-0.0141525,0.0540161,0.060997,0.0617981
41,3,-0.00579834,-0.0196457,0.0528336,0.0552368,0.059166
41,4,-0.000686646,-0.0242233,0.0540543,0.0582504,0.0609207
42,0,0.00102997,-0.098877,0.0577545,0.0658417,0.0669479
42,1,-0.00152588,-0.0741577,0.0580597,0.0675964,0.0682068
42,2,-0.0019455,-0.0269318,0.0580978,0.0689697,0.0695419
42,3,0.000801086,-0.0159836,0.0592041,0.0639725,0.0642776
42,4,0.00160217,-0.00701904,0.0593567,0.063324,0.0601196
43,0,-0.00293732,-0.03685,0.0553894,0.0617981,0.0612259
43,1,-0.00480652,-0.0592804,0.0559616,0.0672913,0.0614929
43,2,0.00144958,-0.0722504,0.0576019,0.0697708,0.0679779
43,3,0.00713348,-0.0802612,0.0589371,0.0692368,0.0725937
43,4,0.00892639,-0.000534058,0.0552368,0.0703049,0.0621414
44,0,0.00514984,0.17971,0.0536728,0.0643921,0.0574493
44,1,0.00408173,0.311279,0.058403,0.0619125,0.064888
44,2,0.00160217,0.310898,0.0576019,0.0629044,0.0628281
44,3,0.00225067,0.0701141,0.0574875,0.0629425,0.0663757
44,4,0.00125885,-0.0810623,0.059967,0.0636292,0.071373
45,0,0.000228882,-0.0691986,0.0634766,0.0653458,0.0740814
45,1,0.00167847,-0.0349045,0.0631332,0.0630569,0.0689316
45,2,-0.00423431,-0.186501,0.0590515,0.0629044,0.0664902
45,3,-0.00644684,-0.233803,0.0566101,0.0608444,0.0628281
45,4,-0.00339508,-0.108337,0.057869,0.0589371,0.0641632
46,0,0.000991821,0.02491,0.0635147,0.0578308,0.0676346
46,1,0.00118256,0.0515366,0.058136,0.064621,0.0667953
46,2,-0.000572205,0.0044632,0.0590515,0.0708389,0.0688553
46,3,-0.0025177,-0.000228882,0.0550079,0.0776291,0.068779
46,4,-0.00343323,0.0783539,0.0588608,0.0814056,0.0704575
47,0,-0.00434875,0.188484,0.0523758,0.0754547,0.0654602
47,1,-0.00175476,0.129967,0.0526428,0.0676346,0.0629044
47,2,0.00171661,-0.0202179,0.0537872,0.0480652,0.0687027
47,3,0.00282288,-0.0879669,0.058403,0.039444,0.0720596
47,4,-0.000190735,-0.0630188,0.0563049,0.0476837,0.0685883
48,0,-0.00255585,-0.0593185,0.0542068,0.0611115,0.0645828
48,1,-0.00038147,-0.0308228,0.0572586,0.0644684,0.063858
48,2,0.00110626,-0.00988007,0.0530243,0.0641632,0.0615692
48,3,0.00263214,-0.0297165,0.0558853,0.0649261,0.0632477
48,4,0.00362396,-0.0363159,0.0604248,0.0694656,0.0664902
49,0,0.00347137,0.034523,0.0582886,0.0738907,0.0701523
49,1,0.000762939,0.189476,0.0597,0.0733566,0.0712585
49,2,-0.00335693,0.109634,0.0543594,0.0697327,0.0631332
49,3,-0.0037384,-0.0268555,0.0549316,0.0723648,0.0646591
49,4,-0.00179291,-0.19371,0.0648117,0.0960541,0.0642014
50,0,0.00392914,-0.278816,0.0685501,0.102615,0.0706482
50,1,0.00282288,-0.196304,0.0670242,0.107307,0.0726318
50,2,0.00389099,0.0133896,0.0420761,0.0753784,0.0672531
50,3,0.00801086,0.430183,0.0311279,-0.000686646,0.0629425
50,4,0.00583649,0.422554,0.0541687,-0.0536728,0.0637054
51,0,-0.0037384,0.038147,0.0559235,-0.0213623,0.0578308
51,1,-0.00160217,0.0595856,0.0670242,0.0426483,0.0606155
51,2,-0.000724792,-0.083313,0.0777817,0.0563431,0.0699997
51,3,0.000572205,-0.17807,0.0650406,0.0838852,0.0717926
51,4,0.00118256,-0.0763702,0.0699997,0.0882721,0.0688171
52,0,-0.00415802,-0.0376129,0.053978,0.0816345,0.0648117
52,1,-3.81E-05,-0.0292969,0.0670242,0.0803375,0.0621033
52,2,-0.000305176,-0.0481415,0.0803375,0.0883484,0.0642014
52,3,-0.000228882,-0.0828934,0.0559235,0.0977325,0.0653839
52,4,0,-0.0575638,0.0624084,0.0955963,0.0680923
53,0,0.00217438,-0.0204086,0.0415421,0.08564,0.0670242
53,1,0.00270844,-0.0271606,0.0501633,0.0748062,0.0691223
53,2,-0.00255585,-0.0506973,0.0494003,0.0761414,0.0613403
53,3,-0.0031662,-0.0653076,0.111847,0.0728226,0.0625992
53,4,0.00175476,-0.0296021,0.0743866,0.0806046,0.0638962
54,0,-0.000801086,-0.0718689,0.01091,0.159073,0.0648117
54,1,-0.00274658,-0.0472641,0.0222397,0.131454,0.0665283
54,2,-0.000419617,0.0198746,-0.00614166,0.0559998,0.0614929
54,3,-0.00762939,0.0554276,-0.0254822,-0.0351334,0.0601959
54,4,-0.0143433,0.0553894,0.0397491,-0.0641632,0.0689697
55,0,-0.0112534,0.0585556,0.00202179,-0.0106812,0.0663757
55,1,-0.00488281,0.0716782,0.00709534,0.0196457,0.062027
55,2,0.0025177,0.0718307,0.051651,0.0587082,0.0705719
55,3,0.013237,0.049057,0.0648499,0.0769806,0.0763702
55,4,0.0204468,0.030098,0.0897217,0.0918961,0.0760269
56,0,0.0213623,0.026207,0.0956345,0.0976181,0.0699997
56,1,0.0153732,0.0402069,0.107765,0.105515,0.0696182
56,2,0.0117111,0.0304031,0.111542,0.0978088,0.0673294
56,3,0.0056839,0.000343323,0.131264,0.100937,0.0681686
56,4,0.000724792,-0.0406647,0.155182,0.0567627,0.0686264
57,0,-0.000572205,-0.141106,0.1437,0.0236893,0.0675201
57,1,-0.000686646,-0.102043,0.114937,0.0256348,0.067482
57,2,-0.0103378,0.0381851,0.0148773,0.0177383,0.0615692
57,3,-0.0147247,0.0651932,-0.108833,0.0326538,0.0570297
57,4,-0.0146866,0.0854111,0.0806808,0.0608444,0.0614929
58,0,-0.010643,0.0545502,0.127182,0.0986099,0.0587845
58,1,-0.00663757,0.100403,0.0790405,0.115891,0.0617981
58,2,-0.0152206,0.244713,0.0534439,0.0982666,0.0666046
58,3,-0.0135422,0.192795,-0.161858,0.0579834,0.0666809
58,4,-0.00919342,0.0340271,-0.155067,0.044899,0.0688553
59,0,-0.00522614,-0.0509644,0.0100708,0.0292587,0.0696564
59,1,0.000267029,-0.0568771,0.0769424,0.0723648,0.0666046
59,2,0.0114059,-0.0555801,0.112572,0.117569,0.0675201
59,3,0.019455,-0.0664902,0.117226,0.108948,0.0686646
59,4,0.0243378,-0.130119,0.0352859,0.0883102,0.0663376
60,0,0.0161362,-0.15728,0.0696564,0.0671387,0.0606537
60,1,0.00976563,-0.141106,0.106049,0.0256729,0.0696564
60,2,0.00400543,-0.0793839,0.105133,0.00652313,0.0746155
60,3,-3.81E-05,-0.0819778,0.102425,0.0325394,0.0801468
60,4,-0.000572205,-0.0953293,0.0958252,0.0614548,0.0908279
61,0,-0.000572205,0.0302887,0.0919342,0.086441,0.0943375
61,1,-0.00591278,0.00640869,0.0926208,0.0904846,0.0849533
61,2,-0.0117874,-0.100021,0.0874329,0.0482941,0.0685501
61,3,-0.0154114,-0.0426483,0.0791931,0.00595093,0.0517654
61,4,-0.00957489,0.0299835,0.0690079,0.0160599,0.0156021
62,0,0.00167847,0.105095,0.0634766,0.0436401,0.0319672
62,1,-0.00179291,0.10128,0.0575638,0.0627136,0.0616837
62,2,0.00205994,0.0505829,0.0556183,0.0784302,0.0670624
62,3,0.00183105,0.0103378,0.0478363,0.10128,0.0701904
62,4,0.0043869,-0.0163269,0.0315094,0.0986099,0.065918
63,0,0.000228882,0.00892639,0.0115204,0.0738525,0.0658417
63,1,-0.000991821,0.0437546,0.019455,0.0835419,0.0658417
63,2,0.00247955,0.0793457,0.0465012,0.0846481,0.0753403
63,3,0.00686646,0.0899887,0.124245,0.0719833,0.0812531
63,4,0.00160217,0.0144196,0.219383,0.0909805,0.0715256
64,0,-0.00740051,0.0307083,0.0969696,0.114975,0.0628281
64,1,-0.0194168,-0.0146866,0.0305176,0.09552,0.0580978
64,2,-0.0146866,-0.0549316,-0.047493,0.0621414,0.0619125
64,3,-0.00331879,-0.045929,-0.133629,0.0553131,0.065918
64,4,0.00831604,-0.0296402,-0.0114441,0.0138474,0.0655365
65,0,0.0127029,-0.0212097,0.0462723,0.0210571,0.069046
65,1,0.0159073,-0.0174332,0.0493622,0.0940704,0.0660706
65,2,0.0262451,-0.00740051,0.00812531,0.18074,0.0614166
65,3,0.0248718,-0.0037384,-0.0261688,0.151405,0.0559616
65,4,0.0227737,0.0442886,-0.0608826,0.0110245,0.0540924
66,0,0.0131607,0.0389862,-0.000534058,-0.0753784,0.058403
66,1,-0.00152588,0.0148392,0.114479,-0.0770569,0.0617218
66,2,-0.0031662,0.00236511,0.0752258,0.0038147,0.0645447
66,3,0.00259399,-0.0150681,0.111275,0.0481796,0.0683975
66,4,0.00541687,-0.0266647,0.235405,0.0792313,0.0720978
67,0,0.00499725,-0.0205231,0.161514,0.0844193,0.0731659
67,1,-0.00209808,-0.011673,0.092392,0.0605774,0.0685501
67,2,-0.0213242,-0.00728607,0.107346,0.0598145,0.0708008
67,3,-0.0282669,-0.000724792,0.133934,0.0869751,0.0745392
67,4,-0.0308609,-0.00484467,0.119476,0.103836,0.0734329
68,0,-0.037384,-0.00087738,0.13401,0.12619,0.0695801
68,1,-0.0543594,0.00713348,0.120964,0.184555,0.0682449
68,2,-0.033493,0.00663757,-0.0840759,0.167465,0.0677109
68,3,-0.00694275,0.00812531,-0.115967,0.149765,0.0653458
68,4,0.00957489,0.0107193,-0.0575638,0.0798798,0.0702286
69,0,0.0242615,0.00827789,-0.0753403,0.0214767,0.0740433
69,1,0.0315857,0.00827789,0.0165939,-0.0704956,0.073204
69,2,0.0315475,0.00904083,0.113907,-0.200348,0.0661469
69,3,0.0458908,0.00358582,0.0923157,-0.0996399,0.0562668
69,4,0.0510406,0.0050354,0.11776,0.11158,0.0600815
70,0,0.0390244,0.00293732,0.143738,0.168076,0.0720215
70,1,0.0109482,0.00244141,0.056572,0.169716,0.0793457
70,2,-0.0204468,0.00171661,0.0915146,0.119209,0.0697327
70,3,-0.0381851,-0.000495911,-0.000343323,0.0995255,0.0585556
70,4,-0.0753021,-0.00320435,0.00919342,0.0660706,0.0578308
71,0,-0.084877,-0.00392914,0.0448608,0.0737,0.0522232
71,1,-0.0395966,-0.00461578,0.0219345,0.068779,0.051918
71,2,0.017128,-0.00228882,0.0777817,0.0475311,0.0629425
71,3,0.0615311,0.000724792,0.0662994,0.0648499,0.0669098
71,4,0.0606155,-0.00621796,0.083847,0.0686264,0.0712204
72,0,0.0486755,-0.00717163,0.104294,0.0758362,0.0760651
72,1,0.0490952,-0.00518799,0.101547,0.0928116,0.0778961
72,2,0.0315094,-0.0025177,0.142441,0.0466537,0.0706482
72,3,0.00961304,-0.00148773,0.24456,0.037117,0.0605011
72,4,0.00247955,-0.000267029,0.216599,-0.0188446,0.0589752
73,0,0.0264359,0.000190735,0.201492,-0.0138474,0.0548172
73,1,0.0497055,0.00102997,0.0591278,0.0497437,0.0588989
73,2,0.0302887,3.81E-05,-0.235558,0.102844,0.069313
73,3,-0.00835419,-0.00293732,-0.270882,0.141487,0.0797272
73,4,-0.0563812,-0.0018692,-0.0273514,0.089035,0.0802231
74,0,-0.12043,0.00141144,0.112343,0.0145721,0.0725174
74,1,-0.102921,-0.0037384,0.0666046,-0.0371552,0.0609589
74,2,-0.0505066,-0.00598907,-0.0165558,-0.00278473,0.0548553
74,3,0.000419617,-0.00114441,-0.138626,0.0580597,0.0685883
74,4,0.0121307,0.00133514,-0.186882,0.0588608,0.0756073
75,0,0.00953674,-0.00102997,-0.0258636,0.0838089,0.0762939
75,1,0.0206375,-0.000648499,0.0368881,0.109634,0.0697327
75,2,0.0304413,0.00911713,0.22728,0.152054,0.0583649
75,3,0.0260544,0.00827789,0.422249,0.141602,0.0431824
75,4,0.0187683,0.00549316,0.23098,0.125008,0.0484467
76,0,0.00247955,-0.000114441,0.162659,0.0818253,0.0559235
76,1,-0.0153732,0.00408173,0.0252533,0.0615311,0.060997
76,2,-0.0448608,0.00461578,-0.0143433,0.0662994,0.0706482
76,3,-0.0487137,-0.000572205,0.052681,0.0656891,0.0780106
76,4,-0.0291443,0.0030899,0.00343323,0.0521088,0.0724411
77,0,-0.0270844,0.0044632,0.024147,0.0932693,0.0691223
77,1,-0.0376129,0.00183105,0.0556183,0.0679779,0.0656128
77,2,-0.0514603,-0.00225067,0.0535583,-0.00804901,0.0408173
77,3,-0.0365067,-0.0030899,0.0752258,0.0630569,0.045166
77,4,-0.0349426,-0.00110626,0.149269,0.0505447,0.0628281
78,0,-0.01091,-0.00389099,0.149269,0.0166702,0.0763321
78,1,0.0590134,-0.00125885,0.0914764,0.0757599,0.0878143
78,2,0.0911713,0.00450134,0.105782,0.169144,0.0710678
78,3,0.130157,0.000572205,0.0551605,0.103035,0.0552368
78,4,0.151443,-0.00362396,0.103455,0.0310516,0.0627136
79,0,0.160904,-0.00236511,0.0492859,-0.0492477,0.0780487
79,1,0.12291,-0.00289917,-0.0614548,-0.0617981,0.0794983
79,2,0.0286102,0.000991821,-0.00946045,0.0814438,0.0848389
79,3,-0.087471,0.00144958,-0.0362778,0.140686,0.0831604
79,4,-0.139847,-0.00324249,-0.0930786,0.138168,0.0867462
80,0,-0.0959396,-0.00507355,0.0715637,0.119362,0.100021
80,1,-0.0455093,-0.00293732,0.0608826,0.0755692,0.0958252
80,2,-0.00572205,-0.00343323,0.076561,0.101814,0.0829315
80,3,0.0180054,-0.000762939,0.10437,0.198021,0.0782776
80,4,0.0175476,0.00488281,0.170441,0.240364,0.0679016
81,0,0.0107193,0.0127029,0.222664,0.0555801,0.0819016
81,1,0.00469208,0.00839233,0.0668716,-0.178566,0.0878143
81,2,-0.0124741,0.00354767,-0.00457764,-0.148621,0.0748444
81,3,-0.0130081,0.000801086,-0.0988388,-0.0341034,0.0507355
81,4,-0.0186157,0.000724792,-0.146294,-0.0372314,0.0551987
82,0,-0.0356293,0.00110626,-0.0454712,-0.0432587,0.0541687
82,1,-0.054512,-0.0030899,0.0363922,-0.0799561,0.0540924
82,2,-0.0600433,0.00209808,0.0744247,-0.0284195,0.062294
82,3,-0.0409698,0.00164032,-0.0320816,0.0151443,0.0679016
82,4,-0.0037384,0.00232697,-0.12291,-0.00526428,0.0651932
83,0,0.0198746,-0.00156403,0.134354,0.143433,0.064621
83,1,0.0344849,0.00179291,0.147285,0.230789,0.0476837
83,2,0.0440216,0.00717163,0.122452,0.269699,0.0357056
83,3,0.0346375,0.00747681,0.130844,0.284882,0.035553
83,4,0.0246811,-0.00209808,0.0688553,0.179863,0.0442886
84,0,0.0157928,-0.00541687,0.0672913,-0.00591278,0.0387955
84,1,0.0201797,-0.00579834,0.100327,-0.0646973,0.00827789
84,2,0.0188828,-0.00980377,0.0733185,0.0565338,-0.00171661
84,3,-0.00812531,-0.0123215,0.0655365,0.280609,0.0195313
84,4,-0.0462341,-0.00793457,0.127869,0.329399,0.0233459
85,0,-0.0609589,-0.00114441,0.185814,0.201187,0.0257111
85,1,-0.0509262,0.00278473,0.0537109,0.00148773,0.0252914
85,2,-0.0496674,-0.000305176,-0.0114441,-0.2211,0.031395
85,3,-0.0301361,-0.00171661,0.0502777,-0.147476,0.0537491
85,4,0.00595093,-0.000534058,0.126305,-0.00953674,0.0841522
86,0,0.0426865,0.00423431,0.216446,0.120468,0.110435
86,1,0.0584793,0.000648499,0.168915,0.221519,0.134087
86,2,0.0510406,0.00236511,0.0832748,0.205193,0.145416
86,3,0.0694275,0.00244141,0.0102997,0.100555,0.139618
86,4,0.0746155,0.00156403,-0.0471115,0.100594,0.137138
87,0,0.0385284,-0.000152588,0.0886917,0.0175858,0.142899
87,1,-0.00247955,-0.00289917,0.264587,-0.000839233,0.136375
87,2,-0.0559235,-0.00228882,0.195694,0.0384521,0.146217
87,3,-0.0881195,-0.00038147,0.104637,0.0261688,0.156059
87,4,-0.0842667,-0.000495911,-0.0742722,-0.0139618,0.153427
88,0,-0.0692749,-0.000953674,0.033226,0.173836,0.118256
88,1,-0.0219727,0.000190735,0.0107193,0.187531,0.0587082
88,2,0.0680161,0.0063324,-0.0468063,0.0233841,0.0359344
88,3,0.143318,0.00221252,-0.0714111,-0.0797653,0.0212097
88,4,0.143509,0.00400543,-0.0445938,-0.122375,0.00926971
89,0,0.0862885,0.00629425,-0.0848007,-0.00537872,0.0118256
89,1,0.022049,0.00823975,-0.0443649,0.02491,0.00450134
89,2,-0.0286102,0.00038147,-0.0738525,0.0265121,0.00831604
89,3,-0.0483704,0.00419617,-0.160332,0.0388336,0.0167465
89,4,-0.0516129,-0.00629425,-0.0637436,0.0576782,0.031395
90,0,-0.0575256,-0.0112915,0.0895691,0.049324,0.034523
90,1,-0.0585175,-0.00453949,0.140305,0.0951767,0.0539017
90,2,-0.0412369,-0.00915527,0.338326,0.127563,0.0697708
90,3,-0.0435638,-0.00648499,0.132828,0.114899,0.0624466
90,4,-0.0351334,-0.00350952,0.158768,0.145454,0.0487518
91,0,-0.0331116,0.00087738,0.109215,0.149307,0.0377274
91,1,-0.0224304,-0.000801086,-0.0226593,0.129433,0.0325775
91,2,-0.0112534,-0.00232697,0.123291,0.0915146,0.0397491
91,3,-0.00152588,0.00404358,0.158806,-0.0133514,0.0518036
91,4,0.000419617,0.00629425,0.191116,-0.0300217,0.0448608
92,0,0.0075531,0.0094223,0.0902939,0.0642014,0.0291061
92,1,0.0146103,0.00869751,-0.0691223,0.228577,0.0544739
92,2,0.0247192,0.00511169,0.0789642,0.126839,0.0667953
92,3,0.022583,0.0069046,-0.198059,-0.016098,0.0842667
92,4,0.0140762,0.00473022,-0.579224,-0.102921,0.0944901
93,0,-0.0230026,0.00461578,-0.233727,0.0111771,0.0836563
93,1,-0.0658798,0.00171661,0.444565,0.0630951,0.0892258
93,2,-0.0511551,-0.000610352,0.107651,0.180397,0.109978
93,3,-0.0248337,-0.00465393,0.107727,0.149231,0.107346
93,4,0.026474,-0.0062561,0.262375,0.0181961,0.106926
94,0,0.124168,-0.00530243,0.138969,-0.26062,0.104485
94,1,0.203094,-0.00125885,0.131645,-0.381393,0.0917816
94,2,0.211716,-3.81E-05,0.122223,0.00972748,0.0820923
94,3,0.13649,0.000267029,0.1894,0.147858,0.0728607
94,4,0.0457764,-0.00282288,0.221329,0.221977,0.0673676
95,0,-0.0283051,-0.00598907,0.186157,0.204048,0.071373
95,1,-0.0898361,-0.00743866,0.164375,0.236511,0.0679398
95,2,-0.123787,0.00240326,0.121269,0.239639,0.0741959
95,3,-0.12085,-0.00339508,0.0884628,0.162849,0.0725174
95,4,-0.0838089,-0.0128555,0.0450897,0.115891,0.0688553
96,0,-0.0580597,-0.0031662,0.0764084,0.15377,0.0683594
96,1,-0.030899,0.00442505,0.051918,0.165634,0.0548172
96,2,-0.00679016,0.00595093,0.064888,0.106812,0.0628662
96,3,0.00156403,0.00808716,0.10807,0.112572,0.0523758
96,4,0.00133514,0.00717163,-0.105057,0.153618,0.039711
97,0,-0.00831604,0.00370026,-0.00270844,0.0829315,0.0523376
97,1,-0.00915527,0.00278473,0.0730133,0.116081,0.0667953
97,2,-0.0109482,0.001297,0.0123596,0.146255,0.056572
97,3,-0.00793457,-0.000686646,0.18013,-0.0109863,0.020752
97,4,-0.00656128,0.000419617,-0.0288391,-0.107155,0.00598907
98,0,-0.000534058,0.001297,-0.0604248,0.0044632,0.0443268
98,1,-0.00392914,-0.00106812,-0.133362,0.0196075,0.064621
98,2,0.00175476,-0.00896454,-0.242081,-0.0137711,0.0571823
98,3,0.0128174,-0.0087738,-0.0581741,-0.153275,0.0574875
98,4,0.0184631,-0.0189209,-0.0792313,-0.176888,0.0391769
99,0,0.015564,-0.0386429,-0.0268173,0.0662994,0.0479889
99,1,0.016098,-0.0643158,-0.0518417,0.11528,0.0749969
99,2,0.0175476,-0.0444412,0.107536,0.0849915,0.0915527
99,3,0.0172043,-0.0119019,0.0415802,-0.022049,0.0995636
99,4,0.0182343,0.0276947,0.136948,-0.0554276,0.099144
100,0,0.0124359,0.0918961,0.0127792,0.0441742,0.0958252
100,1,0.00911713,0.106773,0.11055,0.115242,0.0940323
100,2,0.00839233,0.075531,0.149727,0.166206,0.0891876
100,3,0.00587463,0.0636292,0.0701141,0.13752,0.0851059
100,4,0.00335693,0.0724792,-0.0476074,0.0973892,0.0798416
101,0,0.00217438,0.045166,0.139236,0.104179,0.0824356
101,1,0.000762939,0.0653839,0.276413,0.138321,0.0886154
101,2,-0.00270844,0.0686264,0.231247,0.186119,0.0883484
101,3,-0.00617981,-0.0304794,0.24559,0.149727,0.0734711
101,4,-0.00583649,-0.0733566,0.223427,0.0613785,0.0592804
102,0,-0.00141144,-0.0876999,0.161362,-0.0489044,0.0511551
102,1,-0.000114441,-0.0910568,0.00869751,0.0030899,0.0426865
102,2,-0.00144958,-0.0916672,0.100403,0.14183,0.0436783
102,3,-0.00236511,-0.0904465,0.146751,0.162239,0.0450134
102,4,-0.00377655,-0.0733948,-0.0980377,0.182457,0.0529099
103,0,-0.00591278,-0.0595474,-0.274887,0.0888062,0.0608826
103,1,-0.00812531,-0.0568771,-0.0866699,-0.0439453,0.0672531
103,2,-0.00411987,-0.0379562,0.31105,-0.0388336,0.0667953
103,3,-0.00156403,-0.0339127,0.205116,-0.0370407,0.0731277
103,4,-0.00255585,-0.0272751,0.249023,0.0018692,0.07164
104,0,-0.00152588,-0.0310516,0.100136,7.63E-05,0.0686646
104,1,0.000915527,-0.0139999,-0.170326,0.0818634,0.059433
104,2,-0.00179291,0.0544739,-0.224571,0.13237,0.0534439
104,3,0.000305176,0.153618,-0.0247192,0.0914383,0.0572968
104,4,0.00263214,0.160866,0.205193,0.0312805,0.0634003
105,0,0.00659943,0.0838852,0.0606155,-0.00835419,0.0668716
105,1,0.00732422,0.0261688,-0.00244141,0.0167847,0.0713348
105,2,0.00259399,0.00843048,0.0331879,0.0399017,0.0706482
105,3,-0.00179291,0.0182724,0.0419998,0.0231934,0.0651169
105,4,-0.00591278,-0.00610352,0.0149918,0.112648,0.055542
106,0,0.00118256,-0.0167847,0.0191879,0.211182,0.0533295
106,1,0.000457764,-0.0200272,0.100441,0.303154,0.0601578
106,2,-0.00102997,-0.019722,0.121002,0.312271,0.0648117
106,3,-0.0025177,-0.0192261,0.0253296,0.120964,0.0671768
106,4,0,-0.0191879,0.0328827,-0.149307,0.0680161
107,0,-0.000610352,-0.0120163,0.0296021,-0.219536,0.0685883
107,1,-0.000915527,-0.0120163,0.00980377,-0.265503,0.0645828
107,2,0.00370026,-0.00457764,0.042572,-0.0484467,0.0675964
107,3,0.00606537,7.63E-05,0.0950241,0.087471,0.0709915
107,4,0.00499725,0.00118256,0.144348,0.0442505,0.0718307
108,0,0.00179291,-0.00640869,0.0968933,0.086441,0.0691986
108,1,0.000724792,-0.00434875,0.0725937,0.091095,0.0689697
108,2,0.0038147,-0.000190735,0.100098,0.154152,0.075264
108,3,0.00656128,0.00259399,0.0632858,0.186234,0.0822449
108,4,-0.000572205,0.00377655,-0.0404739,0.127716,0.0827789
109,0,-0.000953674,0.00637054,0.0396347,0.0913239,0.078392
109,1,-0.00335693,0.00518799,0.0844955,0.123329,0.0718689
109,2,-0.00576019,0.00335693,0.0559998,0.134163,0.0678253
109,3,-0.00595093,0.00228882,-0.0984955,0.136452,0.064888
109,4,-0.00732422,0.000572205,-0.0212479,0.132408,0.0641251
110,0,-0.00270844,0.00114441,0.200615,0.132675,0.064621
110,1,0.001297,0.00293732,0.141792,0.116158,0.0634384
110,2,0.00274658,0.0038147,0.091629,0.0637817,0.0624466
110,3,0.000419617,0.00598907,0.0780869,0.0817871,0.0622559
110,4,0.00137329,0.00507355,0.0746536,0.0864792,0.0660706
111,0,-0.000686646,0.00518799,0.0740433,0.0536346,0.0675964
111,1,-0.0018692,-0.000495911,0.0687027,0.022316,0.0649643
111,2,0.000305176,0.00465393,0.068779,0.0316238,0.0668716
111,3,0.00331879,0.00518799,0.0644302,0.0297546,0.0694275
111,4,0.00530243,-0.00106812,0.0426102,0.0115585,0.0627899
112,0,0.00312805,-0.00518799,0.0317383,0.00335693,0.0542068
112,1,0.0012207,-0.0050354,0.0366211,0.0465012,0.0537491
112,2,0.00682831,-0.00354767,0.0385284,0.0572205,0.0543976
112,3,0.00518799,-0.00144958,0.0403595,0.0260544,0.057106
112,4,0.00366211,-0.00289917,0.0448608,-0.0288773,0.0654602
113,0,0.00740051,-0.00209808,0.0478363,-0.0167084,0.067482
113,1,0.00629425,0.000762939,0.0508881,0.0435257,0.0694656
113,2,0.00114441,-0.00167847,0.0453949,0.0680161,0.0680923
113,3,-0.00137329,-0.00682831,0.0498962,0.0490189,0.0612259
113,4,-0.00476837,-0.00797272,0.0540161,0.0257492,0.0579834
114,0,-0.00545502,-0.00553131,0.0516129,0.0422668,0.059967
114,1,-0.00526428,-0.00114441,0.0513458,0.0878525,0.0692749
114,2,-0.00457764,-0.00221252,0.0546646,0.107574,0.069809
114,3,-0.00663757,0.00183105,0.0574112,0.0876999,0.0733185
114,4,-0.00411987,0.000648499,0.0550079,0.0600052,0.070076
115,0,-0.00274658,0.000495911,0.0562668,0.0801849,0.0669479
115,1,-0.00385284,0.00125885,0.0624466,0.0871277,0.0646591
115,2,-0.000267029,-0.00141144,0.0603485,0.0828552,0.0676346
115,3,0.0094223,0.00583649,0.066452,0.0821304,0.0688171
115,4,0.0106812,0.00431061,0.0598145,0.0743484,0.0679398
116,0,0.00701904,0.0025177,0.0582123,0.0761032,0.064621
116,1,-0.00125885,0.00175476,0.057106,0.0911713,0.0630188
116,2,-0.00259399,0.000343323,0.0604248,0.0760651,0.0634003
116,3,-0.00499725,-0.000801086,0.0600815,0.00865936,0.0650406
116,4,-0.00461578,-0.000152588,0.0602722,0.000572205,0.0657654
117,0,-0.00522614,-0.00171661,0.0627136,0.0568771,0.0651932
117,1,-0.00141144,0.00141144,0.0642014,0.0772858,0.0693893
117,2,-0.00617981,-0.000724792,0.0619125,0.0789261,0.063858
117,3,-0.010643,-0.00267029,0.0574493,0.0738525,0.0625992
117,4,-0.00652313,-0.00183105,0.0537491,0.0756836,0.0632477
118,0,0.00133514,-0.00202179,0.056839,0.0842285,0.07061
118,1,0.00740051,-0.00137329,0.0615311,0.0896072,0.0710297
118,2,0.00545502,-0.00133514,0.0593948,0.0883484,0.0720215
118,3,0.00144958,-0.00312805,0.059166,0.0850677,0.0711823
118,4,0.00328064,0.00202179,0.0557709,0.0893402,0.0717926
119,0,0.00507355,0.00133514,0.0595856,0.089798,0.0739288
119,1,-0.00167847,-0.00202179,0.056572,0.0903702,0.0685501
119,2,-0.00144958,-0.000267029,0.059433,0.0848007,0.0717545
119,3,0.00190735,0.00274658,0.0612259,0.0730133,0.0745392
119,4,-0.000419617,0.00431061,0.0580978,0.0595474,0.0760269
120,0,-0.000190735,0.000610352,0.0526428,0.0531006,0.0710297
120,1,0.00156403,0.0030899,0.0540161,0.0502396,0.0680161
120,2,-0.000114441,0.00629425,0.0535583,0.0500488,0.0615692
120,3,0.0038147,0.00167847,0.054512,0.0508118,0.0614166
120,4,0.0062561,0.00358582,0.0517654,0.049057,0.0636673
121,0,0.00801086,0.00244141,0.0544357,0.050354,0.0606918
121,1,0.00957489,0.00480652,0.0582123,0.054245,0.0584412
121,2,0.000114441,0.00164032,0.0585938,0.0540924,0.0523758
121,3,-0.00320435,-0.00484467,0.053215,0.0493622,0.0497818
121,4,-0.00225067,-0.0056076,0.0513077,0.050621,0.0514603
122,0,-0.00247955,-0.00213623,0.0551224,0.0514221,0.0538254
122,1,-0.00343323,0.00038147,0.0592804,0.0586319,0.0551224
122,2,-0.00473022,0.000915527,0.0586319,0.0597763,0.0537491
122,3,-0.00110626,-0.00171661,0.060463,0.0604248,0.0537491
122,4,-0.000648499,0.000534058,0.0602341,0.0633621,0.0561905
123,0,-0.000915527,-0.00164032,0.0576401,0.0611877,0.0569153
123,1,-0.00980377,-0.0044632,0.0527191,0.0595093,0.055275
123,2,-0.00762939,-0.00038147,0.0530624,0.0611115,0.0630569
123,3,-0.000534058,0.00324249,0.057869,0.0646973,0.0763321
123,4,0.000267029,0.00415802,0.0603104,0.0651932,0.0833893
124,0,-0.00202179,0.00236511,0.0565338,0.064888,0.0869751
124,1,-0.00282288,-0.00244141,0.0495911,0.0635147,0.0889206
124,2,0.000152588,0.00221252,0.0582504,0.0662613,0.089798
124,3,-0.00408173,0.000648499,0.0577164,0.0699234,0.0772095
124,4,-0.00408173,0.000114441,0.058136,0.070076,0.0640106
125,0,-0.000801086,-0.000839233,0.0598907,0.0745392,0.0566483
125,1,0.00221252,0.000114441,0.0619888,0.0753021,0.0554276
125,2,0.000419617,-0.00110626,0.0619507,0.0746536,0.0562668
125,3,-0.00400543,-0.00335693,0.0567245,0.0677872,0.0642776
125,4,-0.00247955,-0.00537872,0.0519562,0.0647736,0.0727081
126,0,0.0025177,-0.000572205,0.0488663,0.0635529,0.0756073
126,1,0.0044632,0.000839233,0.0543976,0.0653076,0.0764084
126,2,0.00583649,-0.00137329,0.0530624,0.0613785,0.073967
126,3,0.00534058,-0.00164032,0.0524139,0.0595856,0.0751114
126,4,0.00473022,0.00282288,0.0528336,0.0602722,0.0689316
127,0,0.00518799,0.00110626,0.0505066,0.0585175,0.0691986
127,1,0.00370026,0,0.0493622,0.0580597,0.0708008
127,2,0.00270844,0.000534058,0.055542,0.0614548,0.0807953
127,3,0.00694275,0.00717163,0.0573349,0.0654984,0.0903702
127,4,0.00762939,0.00274658,0.0613022,0.0685883,0.0893402
128,0,0.00434875,-0.000114441,0.0589371,0.0656891,0.0783157
128,1,-0.000419617,-0.00118256,0.0567627,0.0624084,0.0597382
128,2,0.0025177,0.000305176,0.0574875,0.0639725,0.0415039
128,3,0.00240326,-0.00133514,0.0568771,0.0636673,0.0267029
128,4,0.000610352,-0.00171661,0.0527191,0.0587082,0.0178528
129,0,0.00183105,-0.000610352,0.0536346,0.0614548,0.0143051
129,1,0.000991821,0.00450134,0.0534439,0.0640869,0.0508118
129,2,0.000610352,0.00175476,0.053978,0.0642014,0.108376
129,3,-0.0069809,-0.00270844,0.0559998,0.0625992,0.123901
129,4,-0.00629425,-0.00278473,0.0498199,0.0594711,0.130615
130,0,-0.00225067,0.00114441,0.0540543,0.0620651,0.107994
130,1,-0.00171661,0.0037384,0.059166,0.064621,0.0486374
130,2,-0.00476837,-0.0012207,0.0600433,0.0669098,0.00541687
130,3,-0.00087738,-0.00087738,0.0638962,0.0656891,-0.11898
130,4,-0.00125885,-0.00141144,0.0633621,0.0684357,-0.0349045
131,0,-0.000762939,-0.00320435,0.0649643,0.0675201,0.0701141
131,1,-0.00263214,-0.0043869,0.0635529,0.0652313,0.0963974
131,2,0.000190735,-0.00102997,0.0680542,0.0699615,0.118866
131,3,0.00297546,0.00427246,0.0717926,0.0728226,0.124016
131,4,0.00389099,0.00247955,0.0685501,0.0736237,0.0778961
132,0,0.00419617,0.00133514,0.0581741,0.0651932,0.0728989
132,1,0.00282288,-0.00110626,0.0527191,0.0616074,0.0949478
132,2,0.001297,-0.00278473,0.0550079,0.063324,0.140152
132,3,0.000343323,0.000305176,0.0537872,0.0614548,0.214806
132,4,0.00106812,0.000190735,0.0512695,0.0642014,0.172615
133,0,0.00419617,0.00152588,0.0509644,0.0618362,0.165215
133,1,0.00289917,0.00305176,0.0507736,0.0619125,0.20298
133,2,-0.00175476,0.00335693,0.0485992,0.062561,0.0955963
133,3,-0.00297546,-0.000495911,0.0466156,0.0575638,-0.136299
133,4,-0.000267029,-0.0018692,0.0484467,0.0569916,-0.115128
134,0,0.00164032,-0.00148773,0.0573349,0.0636292,-0.21698
134,1,0.00507355,0.00114441,0.0641251,0.0728226,-0.0597382
134,2,0.000534058,0.000915527,0.0701523,0.0708389,0.0748825
134,3,0.00156403,0.00087738,0.0702667,0.0688171,0.0628662
134,4,0.0062561,0.001297,0.0653458,0.0677109,0.0545883
135,0,0.000686646,-0.000114441,0.0598907,0.0667191,0.0538254
135,1,-0.01091,-0.00267029,0.0534821,0.0627899,0.0863266
135,2,-0.0143051,-0.00225067,0.0507355,0.0627136,0.116882
135,3,-0.00732422,0.00286102,0.0512314,0.0660706,0.126266
135,4,0.00267029,0.0043869,0.0500107,0.0648499,0.13134
136,0,0.00278473,0.00125885,0.0469208,0.0600052,0.145226
136,1,0.00137329,-0.00267029,0.0408936,0.0563812,0.145378
136,2,0.00518799,-0.000457764,0.0404358,0.0551605,0.125046
136,3,0.0101089,-0.001297,0.0428772,0.0559235,0.0475693
136,4,0.0106049,0.00190735,0.0465012,0.0605774,0.0662994
137,0,0.00587463,0.00141144,0.0514984,0.0620651,0.119858
137,1,-0.000457764,0.00400543,0.0589752,0.0668335,0.0769806
137,2,-0.00324249,0.00377655,0.0625992,0.0676727,0.0527191
137,3,-0.00827789,-0.00141144,0.0606537,0.0640869,0.0447464
137,4,-0.0122452,-0.00335693,0.0574493,0.0643539,0.0762558
138,0,-0.00839233,-0.00358582,0.059166,0.0658417,-0.0110245
138,1,0.000495911,-3.81E-05,0.0616837,0.0643158,-0.0643158
138,2,-0.00114441,0.00156403,0.062561,0.0645065,0.0428772
138,3,0.00198364,0.00225067,0.0638962,0.0662231,0.0758743
138,4,0.0075531,0.00312805,0.0679016,0.0666428,0.0790405
139,0,0.00793457,0.0038147,0.0619888,0.068512,0.070343
139,1,-0.00770569,-0.0018692,0.0582886,0.0630951,0.0590897
139,2,-0.0194931,-0.00205994,0.057106,0.0679016,0.067482
139,3,-0.0328064,0.00450134,0.0569916,0.0671768,0.0692368
139,4,-0.0325775,0.00217438,0.0572205,0.0631332,0.0747681
140,0,-0.0220871,-0.00160217,0.0558853,0.0615311,0.0767899
140,1,-0.00652313,-0.0031662,0.0574875,0.060997,0.0769806
140,2,0.0104141,-0.0031662,0.0564575,0.062561,0.0879669
140,3,0.0274277,-0.00137329,0.0576782,0.0608063,0.0809097
140,4,0.0355148,-0.00148773,0.0541687,0.0601959,0.0448608
141,0,0.0416565,-0.000648499,0.0498962,0.0607681,0.0564194
141,1,0.0555038,0.0025177,0.0535965,0.0621033,0.031395
141,2,0.0615692,0.00297546,0.0547028,0.0618744,0.0237656
141,3,0.0508499,-0.00141144,0.0509262,0.0590134,0.0584412
141,4,0.033493,-0.00179291,0.0504303,0.0580215,0.102692
142,0,0.0171661,-0.00118256,0.0508499,0.058136,0.131454
142,1,-0.0191498,0.00106812,0.0556946,0.0640106,0.0511169
142,2,-0.0411224,0.00320435,0.0603867,0.0666809,0.0180435
142,3,-0.04673,0.00431061,0.0671005,0.0689316,0.00968933
142,4,-0.0499725,0.00362396,0.0705719,0.0749588,0.0950241
143,0,-0.0603485,-0.00118256,0.0728607,0.0787735,0.114746
143,1,-0.0569153,-0.000801086,0.0731659,0.0740051,0.0285339
143,2,-0.0497437,-0.00305176,0.0697708,0.0709152,0.0951767
143,3,-0.0321198,0.00495911,0.068512,0.071907,0.0447464
143,4,-0.0177383,0.00202179,0.0657654,0.0702667,0.0592422
144,0,-0.00370026,-0.000495911,0.0624847,0.0668716,0.0680161
144,1,0.00831604,-0.00110626,0.054512,0.0637817,0.0733566
144,2,0.0328827,-0.00404358,0.0520706,0.0625229,0.0974274
144,3,0.0605392,-0.00507355,0.0527573,0.0635147,0.111008
144,4,0.0740433,-0.00553131,0.0484467,0.0600433,0.110855
145,0,0.069046,-0.00171661,0.0452805,0.0614166,0.105209
145,1,0.0565338,7.63E-05,0.0466919,0.0613785,0.0149918
145,2,0.0388336,-0.00102997,0.043869,0.0609589,-0.00926971
145,3,0.00587463,-0.0044632,0.0465012,0.0543213,0.0658417
145,4,-0.00667572,-0.00255585,0.0435257,0.0534058,0.0692368
146,0,-0.0242233,0.00400543,0.0475311,0.0577164,0.0705719
146,1,-0.0304031,0.00324249,0.0519943,0.0608063,0.0756454
146,2,-0.0246429,0.00522614,0.0532532,0.0615692,0.030098
146,3,-0.0244522,0.00591278,0.0536728,0.0621033,0.0754166
146,4,-0.0324631,0.00331879,0.0548553,0.062027,0.109329
147,0,-0.0437546,0.0043869,0.0595474,0.0643539,0.104256
147,1,-0.037117,0.00167847,0.0588226,0.0664139,0.122566
147,2,-0.0182343,0.000953674,0.0600815,0.0667191,0.114937
147,3,-0.00587463,0.00232697,0.0626755,0.0692368,0.0941086
147,4,-0.00595093,0.000267029,0.0620651,0.0687408,0.0735092
148,0,-0.01091,-0.00331879,0.0633621,0.0681686,0.0289154
148,1,-0.00984192,-0.00488281,0.061264,0.0685883,0.0575256
148,2,-0.00400543,-0.00598907,0.0613785,0.0690842,0.0381851
148,3,-0.00167847,-0.0062561,0.0611115,0.0661087,0.0327301
148,4,0.00293732,-0.00648499,0.058403,0.0635529,0.0277328
149,0,0.00652313,-0.00713348,0.0593948,0.0637054,0.0394058
149,1,0.0111771,-0.00614166,0.0601196,0.0662231,0.0550842
149,2,0.00934601,-0.00328064,0.0580978,0.0629807,0.0931931
149,3,0.00843048,-0.000724792,0.0516129,0.0567245,0.10849
149,4,0.00850677,0.0105667,0.0498962,0.0563049,0.079422
150,0,0.014801,0.0174332,0.0535202,0.0593185,0.0590897
150,1,0.0168228,0.0222778,0.057373,0.0648499,0.0417709
150,2,0.0192642,0.0284958,0.0585938,0.0633621,0.0132751
150,3,0.0175858,0.0262451,0.0593948,0.0630188,-0.0248337
150,4,0.0145721,0.018692,0.0603867,0.0641251,-0.0593948
151,0,0.0141144,0.00377655,0.0567627,0.0617599,0.053978
151,1,0.0094986,-0.0127029,0.0531387,0.0592422,0.136833
151,2,0.00797272,-0.0201797,0.0479126,0.0587845,0.149689
151,3,0.0101089,-0.0199509,0.0540543,0.0626755,0.123138
151,4,0.00991821,-0.0206375,0.0528336,0.0630188,0.0658798
152,0,0.00484467,-0.018425,0.0507736,0.0623703,-0.028801
152,1,0.00320435,-0.0187302,0.0523758,0.0600815,0.0330353
152,2,-7.63E-05,-0.0128174,0.0605392,0.0675201,0.0191879
152,3,0.00156403,-0.00835419,0.0659561,0.0723648,-0.0111008
152,4,-0.000419617,-0.00591278,0.0682449,0.0720978,0.129623
153,0,-0.000190735,-0.00152588,0.0730896,0.0734711,0.147362
153,1,-0.000801086,0.00419617,0.0747681,0.078125,0.144157
153,2,-0.0019455,0.00411987,0.071907,0.0769043,0.117416
153,3,-0.00770569,0.000839233,0.0639343,0.0704575,0.0970078
153,4,-0.0101852,0.0018692,0.058403,0.0653076,0.0772858
154,0,-0.00713348,0.00526428,0.0537109,0.0638199,0.0734329
154,1,-0.00595093,0.00988007,0.0521851,0.0640869,0.0693893
154,2,-0.00629425,0.00919342,0.0535965,0.0637054,0.0715637
154,3,-0.00823975,0.00595093,0.0501633,0.0623322,0.063591
154,4,-0.00839233,0.00431061,0.0492859,0.0595856,0.0628281
155,0,-0.00526428,0.00553131,0.0488663,0.05867,0.0694275
155,1,-0.00740051,0.00171661,0.045929,0.0566864,0.0613022
155,2,-0.00465393,0.00553131,0.0485992,0.0595093,0.0695419
155,3,0.00133514,0.00511169,0.0546646,0.0608826,0.0952148
155,4,0.00133514,0.00858307,0.056076,0.0635529,0.107346
156,0,-0.00217438,0.00465393,0.0534439,0.0642776,0.106544
156,1,-0.00301361,0.00118256,0.0528336,0.0601578,0.0997543
156,2,-0.000190735,-0.000457764,0.0576782,0.0631714,0.132751
156,3,0.00106812,0.000419617,0.0618362,0.0676346,0.14534
156,4,-7.63E-05,-0.000915527,0.0601578,0.0659561,0.0782013
157,0,0.00133514,-0.00331879,0.0539398,0.0621414,0.00663757
157,1,0.00499725,-0.00171661,0.0522232,0.0625992,0.0234604
157,2,0.000495911,-0.00202179,0.0496292,0.063324,-0.0611496
157,3,-0.0056076,-0.00358582,0.048027,0.0601959,-0.186844
157,4,-0.00663757,-0.0043869,0.0498962,0.0580215,-0.115242
158,0,-0.000457764,-0.000839233,0.0515366,0.0588608,-0.0175858
158,1,0.00267029,-0.000419617,0.0575256,0.063591,0.0405502
158,2,0.000267029,0.00209808,0.0608063,0.0679398,0.0211334
158,3,0.0018692,0.00202179,0.0600815,0.0667953,0.114479
158,4,0.00221252,0.000534058,0.0608826,0.0666046,0.170784
159,0,0.00205994,-0.00366211,0.0584793,0.0664902,0.188789
159,1,-0.00038147,-0.00488281,0.0571442,0.065918,0.128365
159,2,-0.000114441,-0.00259399,0.0572586,0.0626755,0.116577
159,3,0.00728607,-0.000572205,0.0596619,0.0664902,0.121536
159,4,0.0056839,0.00202179,0.0658035,0.0700378,0.151825
160,0,0.00362396,0.00289917,0.0656509,0.0690842,0.185928
160,1,0.00263214,-0.00267029,0.0598145,0.0657272,0.120888
160,2,-0.000343323,0.000114441,0.0580597,0.0639343,0.038147
160,3,-0.00038147,0.00545502,0.0561905,0.0634766,0.0870895
160,4,-0.000343323,0.0063324,0.0514984,0.0625992,0.0891113
161,0,-0.00209808,0.000343323,0.0527954,0.0617218,-0.0585938
161,1,0.00286102,-0.00347137,0.0580978,0.0636292,-0.10643
161,2,0.00293732,0.00320435,0.0528336,0.0637817,-0.143738
161,3,-0.00175476,-0.00301361,0.0454712,0.0580215,0.0470352
161,4,-0.0043869,-0.0110245,0.0507736,0.0576019,0.138741
162,0,-0.00408173,-0.0106812,0.0598907,0.0670624,0.141945
162,1,0.00221252,-0.0172043,0.0636292,0.0681305,0.150909
162,2,0.00156403,-0.0322342,0.0617218,0.0643539,0.140991
162,3,0.000495911,-0.0119781,0.0609207,0.0630951,0.0858688
162,4,-0.000991821,0.00804901,0.0580597,0.0671005,0.0367737
163,0,-0.000343323,-0.00480652,0.0601578,0.0658417,0.0550079
163,1,-0.00198364,-0.0169754,0.0556946,0.0603104,0.0677109
163,2,-0.00190735,-0.0204086,0.049057,0.0571823,0.105209
163,3,0.000686646,0.0111771,0.0469971,0.0582504,0.138512
163,4,0.00198364,0.0701141,0.0474548,0.0574493,0.161438
164,0,0.00305176,0.119209,0.0530624,0.0632477,0.172119
164,1,3.81E-05,0.0788879,0.0566864,0.0674057,0.13649
164,2,-0.00164032,-0.0190353,0.0618362,0.0683975,0.131149
164,3,0.000801086,-0.037384,0.0667191,0.0743484,-0.140839
164,4,7.63E-05,-0.0244141,0.0687408,0.072937,-0.115623
165,0,-0.000724792,-0.00545502,0.0682831,0.0734711,-0.0401306
165,1,0.00366211,0.00598907,0.0620651,0.0658417,-0.0255966
165,2,0.0019455,0.00488281,0.0598526,0.063858,-0.030899
165,3,0.000228882,-0.00602722,0.0562668,0.0595093,0.000839233
165,4,-0.0019455,-0.0171661,0.0531387,0.0575256,0.0354385
166,0,-0.00167847,-0.0297928,0.0536346,0.0602722,0.0583649
166,1,0.00335693,-0.0236893,0.0525284,0.0637054,0.0824738
166,2,0.00461578,-0.0165558,0.0545502,0.0627136,0.094986
166,3,0.00259399,-0.0233459,0.0516891,0.0613785,0.101318
166,4,-0.00205994,-0.0249863,0.0559616,0.0608826,0.103149
167,0,-0.0030899,-0.0273895,0.0531769,0.0598907,0.104218
167,1,-0.00415802,0.00408173,0.0506592,0.0594711,0.102081
167,2,-0.00320435,0.0337601,0.0521851,0.0610352,0.103226
167,3,-0.000686646,0.0284958,0.0535583,0.0669861,0.107422
167,4,0.0025177,0.0209427,0.0583267,0.0691605,0.10128
168,0,0.00087738,0.00862122,0.0578308,0.0666809,0.0954819
168,1,0,0.00434875,0.0572586,0.0653076,0.0917435
168,2,-0.000534058,-0.0019455,0.0598526,0.0648499,0.0864792
168,3,0.000686646,-0.00770569,0.0591278,0.0653458,0.0828552
168,4,-0.000686646,-0.0114822,0.057106,0.0639725,0.0803375
169,0,0.00141144,-0.0162888,0.0594711,0.0630951,0.0786209
169,1,0.00110626,-0.0174713,0.0620651,0.0659943,0.0735474
169,2,0.00289917,-0.0157547,0.0620651,0.066185,0.0696945
169,3,-0.001297,0.00614166,0.0590134,0.0635147,0.0639343
169,4,-0.00400543,0.00747681,0.0548553,0.0624847,0.0564194
170,0,-0.00289917,0.00576019,0.0559235,0.0615692,0.0572968
170,1,0.00247955,0.0188828,0.0561523,0.0651169,0.0620651
170,2,0.00202179,0.0200653,0.0572205,0.0674438,0.0597
170,3,0.0031662,0.00347137,0.054512,0.0689316,0.0531387
170,4,0.000305176,0.0113678,0.0555038,0.0684357,0.0537872
171,0,-0.00160217,-0.00331879,0.0548553,0.0651932,0.0514221
171,1,-0.00259399,-0.0404739,0.0518799,0.0613785,0.0488663
171,2,0.00114441,-0.0513077,0.0528336,0.0614548,0.0485229
171,3,0.00267029,0.00804901,0.0600052,0.0661469,0.0564194
171,4,0.0050354,0.0315475,0.0591278,0.0671387,0.0585938
172,0,0.0030899,0.0718689,0.0547409,0.0637817,0.0627899
172,1,-0.00038147,0.0795364,0.0527191,0.0599289,0.0606155
172,2,-0.00244141,0.0238419,0.0543213,0.0600052,0.0623703
172,3,0.00240326,0.031662,0.0550461,0.060463,0.0674057
172,4,-0.000839233,0.0215149,0.0565338,0.0632858,0.0672531
173,0,-0.0025177,-0.0862885,0.0612259,0.0646973,0.0628662
173,1,0.00228882,-0.0826645,0.0632095,0.0653839,0.0629807
173,2,0.00144958,-0.0816727,0.0605392,0.063858,0.0527954
173,3,-0.00293732,-0.050621,0.0560379,0.0595474,0.0430298
173,4,-0.00427246,-0.0237274,0.0508118,0.0586319,0.0490952
174,0,-0.0018692,-0.000991821,0.0484848,0.0594711,0.0622177
174,1,0.000305176,0.028038,0.0543594,0.0637436,0.0697327
174,2,0.0038147,0.015564,0.0539398,0.0677872,0.0759125
174,3,0.00232697,0.162125,0.0554276,0.066452,0.0751114
174,4,0.00335693,0.118408,0.0606918,0.0662613,0.0730896
175,0,-0.000572205,-0.0424194,0.0599289,0.0648499,0.0723267
175,1,-0.00267029,-0.13485,0.0577545,0.0603867,0.0735474
175,2,-0.00320435,-0.0907516,0.057106,0.0620651,0.0699997
175,3,0.000724792,-0.029068,0.0603485,0.0655746,0.0694656
175,4,0.00507355,-0.00583649,0.0617599,0.0673294,0.0725174
176,0,0.00228882,0.0610733,0.0615692,0.0667572,0.0709152
176,1,0.000610352,0.102425,0.0583649,0.0654984,0.0654602
176,2,0.00175476,0.0954819,0.0593948,0.0653839,0.0606537
176,3,0.00164032,0.0699997,0.057869,0.0660324,0.060997
176,4,0.000457764,0.0143051,0.0588608,0.0657654,0.0661469
177,0,-0.00183105,-0.069809,0.0576019,0.0661087,0.0665283
177,1,-0.0044632,-0.0635147,0.0600052,0.0675201,0.0708771
177,2,-0.00896454,-0.0529861,0.0611115,0.0682068,0.0737381
177,3,-0.0101471,-0.0598907,0.0587845,0.0645065,0.069809
177,4,-0.00839233,-0.0525665,0.0536728,0.0595474,0.0669861
178,0,-0.000610352,-0.0725937,0.0518799,0.05867,0.0695801
178,1,0.00679016,-0.0139999,0.0593185,0.0655746,0.071106
178,2,0.0094986,0.0236511,0.0554276,0.0695419,0.0763702
178,3,0.0101852,0.0110245,0.0587845,0.0699234,0.0733948
178,4,0.00564575,-0.0497055,0.0600052,0.0690079,0.0692368
179,0,0.00324249,0.0439072,0.0588608,0.0626373,0.0662613
179,1,-0.00106812,0.185127,0.0547409,0.0697327,0.0631714
179,2,-0.00144958,0.188141,0.0511932,0.0842285,0.0657272
179,3,0.000953674,0.0424194,0.0510025,0.100098,0.064621
179,4,0.0044632,-0.0901413,0.0540161,0.109634,0.0682449
180,0,0.00106812,-0.153923,0.0678635,0.107574,0.0666046
180,1,-0.0018692,-0.0525665,0.066452,0.0483322,0.0613403
180,2,-0.00175476,0.055275,0.0616837,-0.0362015,0.0599289
180,3,-0.000839233,0.0614929,0.0485611,-0.0513458,0.0632858
180,4,-0.00164032,0.0906372,0.0218964,-0.0012207,0.0638199
181,0,-0.00240326,0.0447464,0.050621,0.0642776,0.0632858
181,1,-0.00160217,-0.00152588,0.0635147,0.0843811,0.0637817
181,2,-0.00335693,-0.172653,0.0744247,0.0860214,0.0619888
181,3,-0.00423431,-0.265808,0.08358,0.0748444,0.0580978
181,4,-0.00614166,-0.0769806,0.0578308,0.0759125,0.056839
182,0,-0.00507355,0.048027,0.0154114,0.0814056,0.0566864
182,1,-0.00038147,0.0864792,0.0335693,0.0875854,0.0593948
182,2,0.00404358,0.0567627,0.0826645,0.0909424,0.0615692
182,3,-0.00629425,-0.0876236,0.0975418,0.0894547,0.0647736
182,4,-0.0118256,-0.104523,0.0768661,0.0914001,0.0695801
183,0,-0.00579834,0.0454712,0.0307846,0.0851059,0.067482
183,1,-0.00202179,0.302086,0.0399017,0.0704956,0.0626373
183,2,0.000991821,0.201645,0.0605392,0.064621,0.0654602
183,3,0.00778198,-0.12146,0.0406265,0.0600052,0.0708008
183,4,0.0149918,-0.161362,0.0632858,0.0537872,0.0769806
184,0,0.0151825,-0.0490952,0.0782776,0.0532532,0.0751114
184,1,0.0125122,0.0720596,0.101662,0.0612259,0.0720978
184,2,0.00762939,0.161018,0.120621,0.0564957,0.0726318
184,3,0.00205994,0.0992584,0.15625,0.0877762,0.0737381
184,4,-0.00102997,0.0341415,0.117493,0.104866,0.07164
185,0,-0.00583649,0.00713348,-0.0356674,0.0823593,0.0671387
185,1,0.00156403,0.0527954,-0.112762,0.0397491,0.0593567
185,2,0.0105667,0.0138092,-0.090332,0.0115967,0.0588989
185,3,0.00923157,0.0299072,-0.0276566,0.00198364,0.0589752
185,4,0.00209808,-0.197678,0.0355911,0.0260925,0.0545883
186,0,0.0106049,-0.254364,0.0786209,0.0729752,0.0597763
186,1,0.0125122,-0.160255,0.0911713,0.0712967,0.0631332
186,2,0.00812531,-0.084343,0.0448227,0.0605392,0.0677872
186,3,-0.00152588,0.00431061,0.0589371,0.0246429,0.0692368
186,4,-0.00740051,0.0331879,0.0632858,0.0273514,0.0726318
187,0,-0.0151825,-0.00392914,0.0434113,0.0706482,0.0757217
187,1,-0.0205612,-0.0104523,0.0917053,0.10006,0.0749588
187,2,-0.0139999,0.00331879,0.125313,0.0934601,0.0744629
187,3,-0.01297,0.0167847,0.135193,0.0883484,0.0754166
187,4,-0.0127029,0.0289154,0.116463,0.0836563,0.0770187
188,0,-0.0109482,0.0186157,0.0357819,0.0727463,0.0726318
188,1,-0.00801086,0.00717163,0.00953674,0.0659943,0.0686264
188,2,-0.00450134,0.0094223,0.085144,0.0679779,0.0635147
188,3,0.00087738,0.0226593,0.205765,0.0703812,0.0611496
188,4,0.00511169,0.0305176,0.0460434,0.0737,0.0643539
189,0,0.00427246,0.0308228,0.118256,0.0682068,0.0665665
189,1,0.00511169,0.0825119,0.0791168,0.0712585,0.0654984
189,2,0.00606537,0.138817,-0.0299835,0.0762558,0.0588989
189,3,-0.00320435,0.115929,0.00629425,0.11013,0.0557709
189,4,-0.00553131,0.0589752,0.0252533,0.104599,0.0510788
190,0,0.000534058,0.0063324,0.0413895,0.0640869,0.0517654
190,1,0.00156403,0.0183105,0.0531769,0.00545502,0.0585556
190,2,0.00339508,0.00652313,0.0608826,0.00617981,0.0563812
190,3,0.0056839,0.0241852,0.0630188,0.0267029,0.0650406
190,4,0.00244141,-0.0565338,0.0679779,0.00411987,0.068779
191,0,-0.000495911,-0.104179,-0.00507355,0.0179672,0.0654602
191,1,0.00453949,-0.0763702,0.0018692,0.0595093,0.0610733
191,2,0.00648499,-0.0327682,0.0338745,0.0505447,0.0756073
191,3,0.0148773,0.032692,0.0536346,0.0430298,0.0857925
191,4,0.0135422,0.0994873,0.0914001,0.030365,0.0981522
192,0,0.0056076,0.153465,0.120392,0.0449753,0.0988007
192,1,0.00404358,0.0193024,0.130997,0.0910187,0.090332
192,2,0.00583649,-0.0998688,0.0846481,0.113983,0.0880814
192,3,0.0025177,-0.0873184,0.0592041,0.105057,0.0657272
192,4,0.00431061,-0.0815201,-0.0259399,0.0989914,0.0778198
193,0,0.00480652,-0.128098,-0.143471,0.123291,0.10128
193,1,0.0113297,-0.101738,0.0148392,0.144043,0.0708008
193,2,0.00816345,-0.0754166,0.115395,0.112648,-0.0118256
193,3,0.00102997,-0.0377274,0.067215,0.10128,-0.0740051
193,4,-0.000953674,0.0521851,0.081749,0.0843048,-0.0428772
194,0,-0.00480652,0.016098,0.0605774,0.0181198,-0.0250244
194,1,-0.0107193,-0.0816727,0.0592804,-0.0510788,0.042572
194,2,-0.0148773,-0.066185,0.0437927,-0.00320435,0.194283
194,3,-0.0148773,-0.00858307,0.0812531,0.0799942,0.231285
194,4,-0.0165176,0.0563049,0.0920486,0.120888,0.172501
195,0,-0.00411987,0.0696182,0.063858,0.121918,0.0627899
195,1,0.00587463,0.0518417,0.221024,0.0872421,0.073204
195,2,0.00934601,0.0615311,0.0460815,0.0849533,0.13092
195,3,0.0131989,0.0817871,-0.032692,0.147667,0.0483704
195,4,0.0142288,0.0652313,0.08358,0.0963593,-0.148926
196,0,0.00160217,0.00305176,0.036087,0.0174713,-0.0624084
196,1,-0.0125504,0.00534058,-0.0367737,-0.0458145,0.0468826
196,2,-0.0209045,0.0205231,0.071907,-0.0175476,0.0437164
196,3,-0.0230026,-0.0323486,0.0378418,0.0352097,0.062027
196,4,-0.0259781,-0.0444412,-0.0502777,-0.000190735,0.101547
197,0,-0.0183487,-0.0226974,-0.0107956,0.0082016,0.127411
197,1,-0.00133514,0.00305176,0.0711441,0.115662,0.131035
197,2,0.0135803,0.0189209,0.200386,0.193787,0.131111
197,3,0.0118637,0.0146103,0.20153,0.12352,0.116882
197,4,-0.0031662,0.0140762,0.16243,0.0336456,0.0691605
198,0,-0.00610352,0.0127029,0.116882,-0.0733948,0.086174
198,1,-0.00164032,0.0111389,0.0518799,-0.103302,0.0922775
198,2,-0.00267029,0.0069809,-0.0770569,0.0406647,0.0812531
198,3,0.00450134,0.00843048,-0.153046,0.153046,0.08255
198,4,0.0107574,0.0112152,-0.088768,0.201912,0.0789261
199,0,0.0289154,0.0125885,0.105743,0.21946,0.0860977
199,1,0.041008,0.00408173,0.106621,0.14534,0.0851059
199,2,0.0268173,-0.00228882,0.127716,0.0393295,0.0687027
199,3,0.0223541,-0.00400543,0.190125,-0.0063324,0.0561523
199,4,0.0122452,0.00179291,0.171356,0.0525284,0.0538635
200,0,-0.011673,-0.0154114,0.0806808,0.110779,0.0505447
200,1,-0.0216293,-0.0201416,0.128059,0.0934601,0.0485229
200,2,-0.0261688,-0.0104904,0.114975,0.00377655,0.0484467
200,3,-0.00862122,-0.00968933,-0.0770569,-0.109062,0.0421143
200,4,0.0290298,-0.00434875,0.0477219,-0.0672913,0.0399399
201,0,0.0414276,-0.00427246,0.013504,0.0654602,0.0396347
201,1,0.0343704,-0.00453949,-0.230179,0.111618,0.0365448
201,2,0.0186539,-0.00205994,-0.0867462,0.121803,0.034256
201,3,-0.00862122,-0.00640869,0.179138,0.110245,0.0415039
201,4,-0.0348282,-0.00846863,0.0511551,0.0894165,0.0511932
202,0,-0.0502014,-0.00728607,0.0249863,0.0753021,0.053215
202,1,-0.0675964,-0.00392914,0.0700378,0.0736618,0.0538635
202,2,-0.0675583,-3.81E-05,0.0450134,0.039711,0.0570679
202,3,-0.0370026,-0.00152588,0.035553,0.0120544,0.061264
202,4,0.00408173,0.000267029,0.243988,0.0514603,0.0670624
203,0,0.0355148,-0.000495911,0.156326,0.10643,0.0725937
203,1,0.0526428,-0.00118256,0.103416,0.2071,0.0841141
203,2,0.0600433,-0.00278473,0.1717,0.192871,0.0954819
203,3,0.0605011,0.00267029,0.219536,0.058136,0.094986
203,4,0.0429535,0.00675201,0.243378,-0.00423431,0.0753021
204,0,0.0165558,0.00728607,0.206909,-0.0485611,0.0491333
204,1,-0.00209808,0.00339508,0.185432,-0.122566,0.0358582
204,2,-0.0152969,0.00114441,-0.31208,-0.0341415,0.0453949
204,3,-0.0197601,0.0019455,-0.373154,0.00476837,0.0643539
204,4,-0.0312042,0.0025177,-0.227356,0.0605392,0.0827408
205,0,-0.0444031,-3.81E-05,-0.0998688,0.139389,0.0895691
205,1,-0.0499725,-0.000228882,0.0616455,0.132332,0.0917435
205,2,-0.0524139,0.0056076,0.170975,0.140762,0.0892258
205,3,-0.01297,0.00335693,0.236282,0.126572,0.0799179
205,4,0.0514221,-0.000267029,0.213509,0.0686646,0.075531
206,0,0.0705338,0.000495911,0.162773,0.122871,0.0741959
206,1,0.0407791,0.00457764,-0.00976563,0.178833,0.0899887
206,2,-0.000534058,0.00267029,-0.186577,0.116348,0.0856018
206,3,-0.0189209,3.81E-05,-0.0814056,0.0754166,0.0758743
206,4,-0.0295639,0.000839233,0.0385284,-0.0231171,0.0547028
207,0,-0.0127411,-0.0018692,0.0117493,-0.03479,0.0429916
207,1,-0.00499725,-0.00629425,-0.0418854,0.0533295,0.0540924
207,2,-0.0018692,-0.00534058,0.0476837,0.098381,0.061264
207,3,0.0113678,-0.0025177,0.151787,0.100899,0.0794983
207,4,0.0149155,0.00228882,0.231438,0.0670242,0.0812531
208,0,-0.00488281,0.00190735,0.276375,0.0240707,0.0836182
208,1,-0.0154495,0.0030899,0.158997,-0.0214005,0.0732803
208,2,-0.0171661,-0.00408173,-0.0352859,-0.0018692,0.0556564
208,3,-0.0118637,-0.0123596,-0.0643921,0.0765228,0.0555038
208,4,-0.00602722,-0.0102234,0.062027,0.0780487,0.0579071
209,0,-0.00270844,-0.00637054,0.0933838,0.072403,0.049057
209,1,0.0181961,0.00179291,0.195618,0.0615692,0.056076
209,2,0.0115585,0.00534058,0.291023,0.0662994,0.063858
209,3,-0.00324249,0.00484467,0.228729,0.0761795,0.0495911
209,4,-0.00537872,-0.00152588,0.0621414,0.113297,0.0521088
210,0,-0.00747681,-0.000457764,-0.0543213,0.108948,0.0557327
210,1,-0.000343323,0.00652313,-0.112991,0.0247574,0.0501633
210,2,-0.0112534,0.0100708,-0.0763702,0.0679016,0.0461578
210,3,-0.00999451,0.0108337,-0.0355148,0.118027,0.0534439
210,4,0.022316,0.00839233,0.034256,0.122108,0.0655365
211,0,0.0259018,0.00461578,-0.0310898,0.116692,0.0854111
211,1,0.0187683,0.00247955,-0.0195313,0.0818634,0.099678
211,2,0.0252533,-0.00202179,0.0170517,0.0828552,0.10807
211,3,0.000801086,0.00659943,0.118065,0.108185,0.104713
211,4,0.00495911,0.00862122,0.32589,0.161705,0.0884247
212,0,0.00556946,0.00671387,0.217323,0.126419,0.050621
212,1,0.00419617,0.001297,0.014534,0.0213623,0.0516891
212,2,0.0188065,-0.00362396,-0.00480652,-0.0817871,0.0707245
212,3,0.0658798,-0.00530243,-0.0533676,-0.0960541,0.0767517
212,4,0.0927353,-0.0037384,0.00335693,0.0101471,0.0800705
213,0,0.0885773,-0.00595093,0.0274658,-0.0390244,0.0748062
213,1,0.0727081,-0.00137329,0.0646973,-0.0966263,0.0703049
213,2,-0.0136185,0.00747681,0.0562286,-0.0131226,0.0667953
213,3,-0.0649643,-0.00205994,-0.0416565,-0.028801,0.0670624
213,4,-0.0942993,-0.0117874,-0.0179672,0.0226212,0.0828934
214,0,-0.124016,-0.0166702,0.0812912,0.0813675,0.0951385
214,1,-0.123749,-0.0130463,0.127563,0.122757,0.0801849
214,2,-0.0799561,0.0018692,0.19989,0.136986,0.0565338
214,3,-0.0311661,0.00675201,0.326653,0.0992966,0.0465775
214,4,0.00209808,0.0094986,0.199127,0.0800705,0.0447845
215,0,0.0389099,0.011673,0.0360489,0.0963211,0.0428772
215,1,0.0753403,0.00553131,-0.152473,0.160713,0.0345612
215,2,0.0807571,0.00392914,-0.321999,0.21637,0.0254822
215,3,0.0500107,0.00236511,-0.172501,0.202026,0.0318909
215,4,-0.00656128,0.00526428,-0.0273895,0.109482,0.0543976
216,0,-0.08461,-0.00190735,0.0580978,0.0235367,0.0648499
216,1,-0.115395,0.000686646,0.0215149,-0.0151062,0.0570297
216,2,-0.081749,-0.00240326,0.0247192,0.0183487,0.0381851
216,3,0.000534058,-0.0104141,0.0689697,0.10704,0.0283813
216,4,0.0572968,-0.01194,0.144539,0.11673,0.0339508
217,0,0.0645828,-0.00785828,0.178108,0.0464249,0.0589752
217,1,0.0605774,0.000991821,0.249748,0.00522614,0.0904846
217,2,0.0711823,0.00759125,0.255775,0.0784302,0.101166
217,3,0.0827789,0.000572205,0.19783,0.144806,0.102081
217,4,0.0457382,-0.0107193,0.0299072,0.152969,0.0821686
218,0,0.0204086,-0.0126648,0.13443,0.0606155,0.0456619
218,1,-0.0226593,-0.00858307,-0.0347519,-0.0813293,0.0462723
218,2,-0.0333023,-0.00358582,-0.0258255,-0.00534058,0.09758
218,3,-0.0289154,0.00312805,0.082283,0.0727081,0.144653
218,4,-0.0370026,0.00740051,0.198364,0.120811,0.149689
219,0,-0.0911713,0.0105667,0.15419,0.119858,0.125961
219,1,-0.117683,0.00923157,-0.000534058,0.0521851,0.0977707
219,2,-0.13813,0.00514984,-0.064621,0.0533295,0.0725174
219,3,-0.0934219,0.00587463,0.0937271,0.0492859,0.0566864
219,4,-0.0281525,0.0050354,0.126305,0.0418091,0.0429535
220,0,0.0596237,-3.81E-05,0.0875473,0.0299072,0.0347519
220,1,0.134163,-0.00244141,0.059967,0.0605392,0.0328064
220,2,0.180321,3.81E-05,0.0849915,0.0959015,0.0342178
220,3,0.175819,0.00644684,-0.162697,0.0685501,0.0548172
220,4,0.148087,0.00663757,-0.136681,0.0225067,0.0599289
221,0,0.103378,0.00545502,-0.0630188,-0.0653458,0.0604248
221,1,0.0477982,0.00118256,0.096283,-0.0939941,0.0597763
221,2,-0.00259399,-0.00324249,0.129166,0.083847,0.0488663
221,3,-0.0478745,-0.0111008,-0.0173187,0.0801086,0.0273895
221,4,-0.0850677,-0.0125122,0.00816345,0.0357437,0.0517654
222,0,-0.0952148,-0.0103378,0.0903702,0.0616455,0.0709915
222,1,-0.104027,-0.0069046,0.0511551,0.0777054,0.0661469
222,2,-0.098114,-0.00457764,0.0122452,0.105438,0.0673294
222,3,-0.0827789,-0.000495911,0.0632095,0.110588,0.0662613
222,4,-0.0621796,-0.000648499,0.185738,0.1231,0.0714111
223,0,-0.0415039,-0.000152588,0.185852,0.115395,0.0645828
223,1,-0.0183868,0.00278473,0.132408,0.0598907,0.0617981
223,2,-0.0043869,0.0069046,0.146294,0.0406265,0.063591
223,3,0.00370026,0.0102997,0.044136,0.051651,0.0672531
223,4,0.0088501,0.012207,-0.22213,0.108986,0.0565338
224,0,0.0180817,0.00858307,-0.173988,0.199661,0.0561905
224,1,0.0161362,0.00347137,0.242004,0.200729,0.0604248
224,2,0.0188828,-0.000190735,0.145035,0.150833,0.066452
224,3,0.0177765,0.00209808,-0.282326,0.0362015,0.0654984
224,4,0.0102234,0.000801086,-0.0658035,-0.0117493,0.0719833
225,0,0.0117874,0.00198364,0.440674,0.0247574,0.079422
225,1,0.0169373,0.00370026,0.232353,-0.0973892,0.0946045
225,2,0.0288391,-0.000419617,-0.0116348,-0.059967,0.0988007
225,3,0.0273895,-0.000801086,-0.00488281,0.0828934,0.0716019
225,4,0.0196838,-0.00621796,-0.0980759,0.117836,0.0437164
226,0,0.0227356,-0.00591278,-0.0105286,0.0906754,0.0518417
226,1,0.0164032,-0.00297546,0.176888,-0.00473022,0.0683212
226,2,0.0218201,-0.00110626,0.24437,-0.00881195,0.0798035
226,3,0.0463867,0.00087738,0.152702,0.0556564,0.083046
226,4,0.0626755,0.00511169,0.104713,0.219574,0.0765228
227,0,0.0577927,0.000953674,0.113525,0.288315,0.0696182
227,1,0.0470352,-0.000190735,0.101891,0.181236,0.0733566
227,2,0.0267029,0.00179291,0.0974274,-0.0127411,0.0624847
227,3,0.021019,-7.63E-05,-0.0719452,-0.181885,0.0492859
227,4,0.00717163,-0.00457764,-0.0947189,-0.144005,0.0507355
228,0,-0.0299835,-0.0031662,0.0274658,-0.0231934,0.0786209
228,1,-0.0577164,-0.00221252,0.0634384,0.0720978,0.0871658
228,2,-0.0613022,-0.00389099,0.121002,-0.0157928,0.0934219
228,3,-0.0513077,-0.00286102,0.207939,0.0710678,0.0976181
228,4,-0.0546646,-0.00106812,0.23243,0.190163,0.0997543
229,0,-0.0710297,-0.00263214,0.12249,0.227776,0.0940704
229,1,-0.0588608,-0.000915527,0.0999832,0.12825,0.0621414
229,2,-0.0342941,0.00263214,-0.176392,0.0604248,0.0318527
229,3,-0.0170517,0.00339508,0.182419,0.0914764,0.0236511
229,4,-0.0102615,0.0018692,0.0194931,0.0952911,0.0212479
230,0,-0.00354767,0.00247955,-0.336151,0.206184,0.0131989
230,1,0.00831604,0.001297,-0.279007,0.0765991,0.0235748
230,2,0.0130844,0.00267029,-0.175362,0.0018692,0.0325394
230,3,0.0191879,0.000419617,0.0617599,0.00907898,0.0484848
230,4,0.0225067,0.00141144,0.0901794,0.0254822,0.0613403
231,0,0.0210953,0.00114441,0.0780106,-0.0409698,0.0813675
231,1,0.0214767,-0.00152588,0.0403595,0.00610352,0.0899887
231,2,0.0151062,-0.00476837,0.110817,0.0743103,0.105782
231,3,0.015831,-0.000495911,0.195274,0.0646591,0.114708
231,4,0.0187302,0.00484467,0.319557,0.0723267,0.113258
232,0,0.0143814,0.00362396,0.307655,0.0664139,0.105667
232,1,0.0105286,0.00259399,0.238533,0.108376,0.0736237
232,2,0.00621796,-0.00156403,-0.271416,0.178337,0.0327301
232,3,0.00770569,0.00175476,0.00370026,0.196686,0.0062561
232,4,0.00202179,0.00236511,0.490456,0.150871,0.0224686
233,0,0.00209808,-0.00232697,-0.0271606,-0.00572205,0.0556183
233,1,0.000495911,-0.000648499,-0.164452,0.0130844,0.0747299
233,2,0.00209808,0.0056076,-0.0862503,0.104637,0.0841522
233,3,-0.00255585,0.00190735,0.00339508,0.0329971,0.0919724
233,4,-0.00556946,-0.00152588,0.105667,-0.103607,0.08358
234,0,-0.00648499,-0.00457764,0.0772095,-0.00183105,0.0660324
234,1,-0.00411987,0.000190735,0.0555038,0.116615,0.0710297
234,2,-0.00225067,-0.000190735,0.088768,0.096283,0.0777054
234,3,-0.00343323,0.000457764,0.096817,0.0577927,0.0693512
234,4,-0.00274658,3.81E-05,0.0786972,-0.0187302,0.0708008
235,0,-0.00366211,-0.00453949,0.0684738,-0.0383377,0.0684357
235,1,-0.00038147,-0.00225067,0.0608063,0.0285721,0.0667953
235,2,-0.00328064,-0.00419617,0.078125,-0.00713348,0.0533295
235,3,-0.00385284,-0.000343323,0.069809,0.0769806,0.0572586
235,4,-0.000610352,0.00427246,0.0167084,0.107841,0.0666809
236,0,-0.00038147,0.00133514,-0.00209808,0.153008,0.0548553
236,1,-0.00205994,-0.00232697,0.0892639,0.211983,0.0524139
236,2,-0.00240326,0.00305176,0.0592804,0.185394,0.062561
236,3,-0.0012207,-0.00102997,0.0767136,0.162659,0.0698853
236,4,-0.00274658,0.00038147,0.0741959,0.0304794,0.0685501
237,0,-0.00389099,-0.000267029,0.0169373,-0.161896,0.0736237
237,1,-0.00102997,0.00320435,0.00865936,-0.0340652,0.0733566
237,2,-0.000228882,0.00335693,0.0712585,0.132866,0.0727844
237,3,-0.00366211,0.00114441,0.0879669,0.0795364,0.0713348
237,4,-0.00541687,-0.00389099,0.0871277,0.0252151,0.0661087
238,0,-0.00526428,-0.00423431,0.0717163,0.00419617,0.0644302
238,1,-0.000152588,0.00423431,0.0524139,0.0430679,0.0640106
238,2,0.00450134,0.00469208,0.0329971,0.0960922,0.0656891
238,3,0.00339508,0.00160217,0.0605774,0.130615,0.0613403
238,4,0.00640869,0.00392914,0.0689697,0.165634,0.0620651
239,0,0.00709534,0.00324249,0.0924301,0.183678,0.0637817
239,1,0.00385284,0.00221252,0.117073,0.160332,0.0599289
239,2,-0.000495911,0.000305176,0.0751495,0.0661469,0.0537491
239,3,-3.81E-05,-0.000572205,0.0965118,-0.103149,0.0557327
239,4,0.00282288,0.00160217,0.0291061,-0.032692,0.0563049
240,0,0.00240326,0.0012207,-0.087204,0.0863647,0.0611496
240,1,0.000915527,-0.00125885,-0.0658035,-0.0574493,0.0697327
240,2,-0.00232697,-0.00221252,-0.0133514,-0.0379181,0.0719833
240,3,-0.00190735,-0.00431061,-0.0208664,-0.0140762,0.0711441
240,4,-0.00305176,-0.00347137,0.00156403,0.00209808,0.0690079
241,0,-0.00556946,-0.00164032,0.202026,0.0395584,0.0713348
241,1,-0.00354767,-0.00457764,0.105591,0.0941086,0.0692749
241,2,0.000495911,-0.00110626,-0.0799179,0.148048,0.0678635
241,3,0.00228882,-0.00358582,0.0793457,0.209885,0.0685501
241,4,-0.00236511,-0.00419617,0.0405884,0.216484,0.0665283
242,0,0.00038147,-0.00236511,0.140381,0.168762,0.065918
242,1,0.00370026,7.63E-05,0.107307,0.136108,0.0597
242,2,0.00526428,0.00526428,0.0517273,-0.0107193,0.0642014
242,3,0.00679016,0.00495911,0.0754166,0.027771,0.0712967
242,4,0.00331879,0.00293732,0.0151443,0.0934219,0.075531
243,0,0.000534058,0.00167847,0.0632477,-0.035553,0.0711823
243,1,-0.00240326,0.00362396,0.0548172,-0.0351715,0.0709152
243,2,-0.0025177,0.00217438,0.191345,0.0930405,0.0697327
243,3,0.000495911,0.00263214,0.112953,0.099411,0.0699615
243,4,0.00484467,0.00411987,-0.0736618,0.0485611,0.0709534
244,0,0.0062561,0.00156403,-0.043869,0.0666046,0.0701523
244,1,0.00461578,0.00228882,0.0488281,0.101433,0.0639343
244,2,-0.00267029,0.000114441,0.0773621,0.0900269,0.0593567
244,3,-0.00492096,-0.00137329,0.0937653,0.0691986,0.0595474
244,4,-0.00385284,-0.00637054,0.102959,0.0619888,0.0596619
245,0,-0.00236511,-0.000839233,0.101357,0.0593185,0.0651169
245,1,0.000610352,0.000610352,0.0981522,0.0540924,0.0614929
245,2,-0.000495911,0.00217438,0.095787,0.0537109,0.0606918
245,3,0.000228882,-0.00106812,0.0888824,0.0559235,0.0625229
245,4,0.000114441,-0.00221252,0.0832367,0.0517273,0.0600815
246,0,-0.0043869,-0.00431061,0.0744247,0.0539017,0.0606155
246,1,-0.00247955,-0.00293732,0.07061,0.0548172,0.0666809
246,2,-0.0012207,0.00102997,0.0677872,0.0573349,0.0688553
246,3,-0.00133514,0.000152588,0.0593567,0.057373,0.0680161
246,4,0.0037384,0.00110626,0.0561905,0.0607681,0.0703049
247,0,0.00553131,0.000801086,0.0551224,0.0937653,0.0680161
247,1,0.00522614,0.000228882,0.0398636,0.124702,0.0661087
247,2,0.00175476,-0.00343323,0.0427246,0.120506,0.0665283
247,3,0.00102997,0.000991821,0.0362778,0.134048,0.0688171
247,4,0.00179291,0.00389099,0.0348282,0.0423431,0.0728226
248,0,0.00160217,-0.00125885,0.0394058,-0.0897598,0.0730133
248,1,-0.00190735,0.00202179,0.0370789,-0.0486755,0.0715637
248,2,-0.00495911,3.81E-05,0.0362015,-0.0304031,0.0703049
248,3,-0.000724792,-0.00198364,0.0360489,-0.07061,0.070343
248,4,-0.00160217,-0.000495911,0.0370407,0.0117874,0.0718307
249,0,-0.00133514,0.000228882,0.0425339,0.0777817,0.0701523
249,1,0.00419617,-0.00278473,0.0427628,0.0972748,0.0691223
249,2,0.0117111,0.00362396,0.0441742,0.111084,0.0721741
249,3,0.0107574,0.00579834,0.0407028,0.12085,0.0696945
249,4,0.00606537,0.00156403,0.0355911,0.123558,0.0648499
250,0,0.0063324,-0.00263214,0.0395966,0.126343,0.0647354
250,1,0.00335693,-0.00133514,0.0452423,0.122986,0.0652313
250,2,0.00209808,0.00255585,0.0488663,0.123482,0.068512
250,3,-0.00198364,0.00350952,0.0579453,0.115585,0.0701141
250,4,-0.0056076,0.00389099,0.0574112,0.0979233,0.0674057
251,0,-0.00492096,0.00286102,0.0555038,0.088501,0.0703049
251,1,-0.00343323,-0.00087738,0.0585175,0.0813293,0.0672913
251,2,-0.00461578,-0.00312805,0.0623703,0.0705338,0.0652313
251,3,-0.00461578,-0.000839233,0.066185,0.0649643,0.0662231
251,4,-0.00110626,0.000953674,0.0696945,0.0627899,0.0710678
252,0,0.00137329,0.00217438,0.0708389,0.0578308,0.067215
252,1,-0.00232697,0.00106812,0.069809,0.0525284,0.0648499
252,2,-0.00370026,-0.000648499,0.0677109,0.0501251,0.0592041
252,3,-0.00133514,-0.000686646,0.0688934,0.049057,0.0593567
252,4,0.00457764,-0.00087738,0.0668335,0.0473022,0.0593185
253,0,0.00900269,0.00160217,0.067482,0.0468063,0.0582504
253,1,0.00610352,-0.00202179,0.0645065,0.0444031,0.0561905
253,2,0.00831604,0.00263214,0.0677109,0.0470352,0.054512
253,3,0.00850677,-0.000534058,0.0650406,0.0470734,0.0514984
253,4,0.00217438,-0.00331879,0.058403,0.0441742,0.0479507
254,0,-0.000572205,-0.00545502,0.055275,0.04673,0.0505829
254,1,0.00114441,-0.00164032,0.0580978,0.0455856,0.0570679
254,2,0.000991821,-0.00106812,0.0654221,0.0512314,0.0615692
254,3,-0.00137329,-0.00228882,0.0617218,0.0519562,0.0654221
254,4,-0.00305176,-0.00160217,0.0616074,0.0567627,0.0656891
255,0,-0.00335693,0.00244141,0.0582504,0.0566101,0.0659943
255,1,-0.000724792,0.00137329,0.0584412,0.0615692,0.0640106
255,2,-0.0062561,0.00125885,0.0548172,0.0583649,0.0656891
255,3,-0.00614166,0.00244141,0.0557327,0.0632095,0.0751877
255,4,-0.000343323,0.00297546,0.0583267,0.0702667,0.0902939
256,0,0.000228882,0.00556946,0.0585938,0.0706863,0.0930786
256,1,-0.000839233,-0.000724792,0.0539017,0.0682831,0.0876617
256,2,-0.00247955,0.00038147,0.0475311,0.0649261,0.0773621
256,3,-0.00305176,-0.000915527,0.0476837,0.0683594,0.0743103
256,4,-0.00236511,-0.00221252,0.0534058,0.0733185,0.056076
257,0,-0.000228882,-0.000267029,0.0544739,0.0746155,0.0378799
257,1,0.000801086,0.00106812,0.0536728,0.0748825,0.0548172
257,2,-0.000953674,-0.000228882,0.0539017,0.0777054,0.0694275
257,3,-0.00297546,0.00175476,0.0548935,0.0746536,0.0690842
257,4,-0.00366211,-0.00171661,0.0510025,0.0675964,0.0688171
258,0,-0.00175476,-0.00263214,0.0508118,0.0673676,0.071106
258,1,0.00469208,-0.00225067,0.0494385,0.0662613,0.0747681
258,2,0.0107956,0.00324249,0.0497437,0.0666046,0.0976944
258,3,0.0112152,-0.00087738,0.0518417,0.0662994,0.12989
258,4,0.00873566,0.00335693,0.0541687,0.0671005,0.130157
259,0,0.00427246,0.00545502,0.0528336,0.0643158,0.132713
259,1,-0.00190735,0.000419617,0.0529099,0.0635147,0.123596
259,2,-0.00377655,-0.00205994,0.0487137,0.0614548,0.0534821
259,3,-0.001297,0.000839233,0.0504684,0.0588608,-0.0331116
259,4,0.00133514,0.00324249,0.0554276,0.0622177,-0.0685501
260,0,-0.00106812,0.00362396,0.0602722,0.0667572,-0.0498962
260,1,-0.00270844,0.00366211,0.0597,0.0650024,-0.0043869
260,2,-0.00331879,0.00190735,0.0588608,0.0621796,0.0179672
260,3,-0.000495911,0.0019455,0.0576782,0.0616837,0.0304031
260,4,-0.000762939,0.00217438,0.0577545,0.0611496,0.0341415
261,0,0.000648499,0.000343323,0.0598145,0.0616455,0.0546265
261,1,0.00389099,-0.00171661,0.0556183,0.0589752,0.0893021
261,2,0.00366211,0.000762939,0.0588608,0.0619888,0.143814
261,3,0.00366211,0.000114441,0.0585938,0.0629807,0.162964
261,4,-0.00434875,-0.00530243,0.0605011,0.0589371,0.122223
262,0,-0.0075531,-0.00736237,0.0635147,0.0605011,0.0940323
262,1,-0.0037384,-0.00240326,0.0679016,0.0659943,0.0944519
262,2,0.00202179,-0.00038147,0.0701141,0.0733948,0.122108
262,3,0.00247955,0.0019455,0.0712585,0.0730896,0.148239
262,4,0.0037384,-0.000648499,0.0644684,0.0704193,0.148811
263,0,0.000762939,0.00102997,0.0621414,0.0665283,0.145988
263,1,0.00263214,-0.000839233,0.0556564,0.0637817,0.147362
263,2,-0.00160217,-0.00202179,0.0485992,0.0595093,0.12291
263,3,0.000610352,-0.00125885,0.0494385,0.0590134,0.101585
263,4,0.00305176,-0.000534058,0.0499725,0.059166,-0.000228882
264,0,0.00244141,0.00282288,0.051918,0.0615311,-0.216217
264,1,-0.000839233,0.00328064,0.0514603,0.0597382,-0.215797
264,2,-0.00392914,-0.00156403,0.0515366,0.064621,-0.0082016
264,3,-0.000610352,-0.00263214,0.0563049,0.0654984,-0.0185394
264,4,-0.00217438,0.000343323,0.0618362,0.0679016,-0.0164795
265,0,-0.000267029,0.000114441,0.0635147,0.0671387,-0.00389099
265,1,0.00221252,0.00259399,0.0606537,0.0672913,0.120087
265,2,0.00419617,0.00305176,0.0664139,0.0706482,0.189171
265,3,0.00110626,-0.00102997,0.0571442,0.068779,0.173111
265,4,-0.0030899,-0.00335693,0.0524521,0.0650024,0.139351
266,0,-0.00335693,-0.00148773,0.0524521,0.0617599,0.119476
266,1,-0.0019455,-0.00278473,0.0510025,0.0622559,0.114861
266,2,0.00324249,0.000228882,0.0507355,0.0644302,0.115509
266,3,-3.81E-05,0.00141144,0.0476456,0.060463,0.0986862
266,4,0.00419617,0.00293732,0.0495911,0.0611496,0.0895309
267,0,0.00301361,0.000839233,0.0513077,0.0609589,0.0818634
267,1,0.00232697,0.00137329,0.0487137,0.059166,0.0727844
267,2,0.00137329,-0.00347137,0.0462723,0.0550079,0.062027
267,3,-0.00816345,-0.00415802,0.0467682,0.0563812,0.0488281
267,4,-0.00236511,0.0019455,0.0566864,0.0613403,0.0447083
268,0,0.00152588,0.00396729,0.0600052,0.0649643,0.0555801
268,1,0.00423431,0.00297546,0.0602341,0.0654984,0.0761795
268,2,-0.000495911,0.000534058,0.0605011,0.0632477,0.112762
268,3,-0.00190735,7.63E-05,0.0613022,0.0624084,0.111122
268,4,0.00278473,0.000991821,0.0572586,0.0652313,0.0698471
269,0,-0.000190735,0.00217438,0.0554276,0.0668335,0.0398636
269,1,-0.00144958,0.00110626,0.0607681,0.0692749,0.0368118
269,2,0.00228882,0.00629425,0.0649643,0.0715637,0.038414
269,3,-0.0031662,0.00118256,0.0676727,0.0724792,-0.0275421
269,4,-0.00804901,-0.000801086,0.0574112,0.0632477,-0.0636673
270,0,-0.0225449,-0.00202179,0.0531006,0.0580597,0.0535965
270,1,-0.02285,-0.00144958,0.0531387,0.060997,0.0975037
270,2,-0.0134659,0.001297,0.0585556,0.0653839,0.100098
270,3,0.0105667,0.000228882,0.0583267,0.0675201,0.0875092
270,4,0.0202942,-0.000953674,0.0605011,0.0681305,0.0782394
271,0,0.0151443,0.00087738,0.0588989,0.0670242,0.0494766
271,1,0.0140381,-0.00038147,0.0583649,0.062561,0.00995636
271,2,0.0188446,-0.00339508,0.056076,0.0618744,-0.00404358
271,3,0.0231934,-0.00125885,0.0554276,0.0632095,0.0471115
271,4,0.0368881,0.00225067,0.0554657,0.0675964,0.0812149
272,0,0.0443649,0.00404358,0.0574493,0.0628662,0.0672531
272,1,0.0483322,0.00278473,0.0603485,0.0659561,0.0247574
272,2,0.0334549,-7.63E-05,0.0520325,0.0623703,0.0776291
272,3,0.000762939,0.00209808,0.0537872,0.0616074,0.0619125
272,4,-0.0144577,0.000724792,0.0519943,0.0614548,-0.0102997
273,0,-0.0300217,0.000495911,0.0509262,0.0641251,0.0747681
273,1,-0.0432205,-3.81E-05,0.0535202,0.0637817,0.169716
273,2,-0.0454712,0.00118256,0.0605011,0.0663757,0.223541
273,3,-0.029335,0.000801086,0.0636673,0.0671387,0.202332
273,4,-0.0267029,-0.00255585,0.0539398,0.0630951,0.168228
274,0,-0.0266647,-0.00591278,0.0506973,0.0594711,0.170326
274,1,-0.025177,-0.00110626,0.0558472,0.0635529,0.142212
274,2,-0.029068,0.00221252,0.0592804,0.0657654,0.120354
274,3,-0.0233841,-0.0019455,0.0636673,0.0676346,0.0278854
274,4,-0.0170517,-0.000572205,0.0659943,0.066452,-0.197144
275,0,-0.0140762,-0.000534058,0.0640488,0.0696182,-0.0622177
275,1,-0.00972748,-0.00190735,0.0660324,0.0707626,-0.0333786
275,2,-0.00709534,-0.00457764,0.0619507,0.0661469,-0.01091
275,3,-0.00114441,-0.00221252,0.0594711,0.0654984,0.0475693
275,4,0.00980377,0.000991821,0.0609207,0.0667191,0.0447845
276,0,0.0209427,0.00408173,0.0580978,0.0641632,0.0627518
276,1,0.0254822,0.000610352,0.0495529,0.0611877,0.100441
276,2,0.0183868,-0.00171661,0.0443268,0.0540161,0.100174
276,3,0.0116348,-0.00350952,0.0446701,0.0555801,0.159492
276,4,0.00694275,-0.00293732,0.04879,0.0593948,0.188828
277,0,-0.00114441,-0.00125885,0.0529861,0.0626755,0.140686
277,1,-0.000305176,0.000190735,0.0551605,0.0642776,0.0751877
277,2,0.00919342,0.00679016,0.0575256,0.0642395,0.04673
277,3,0.0108719,0.0105286,0.0585175,0.0645828,0.0477219
277,4,0.00812531,0.00736237,0.0505829,0.0580597,0.0862503
278,0,0.00530243,0.00743866,0.0495911,0.0536346,0.0882721
278,1,0.00938416,0.00534058,0.0501633,0.0587845,0.0647736
278,2,0.0113297,0.00331879,0.0561523,0.0611877,0.0769806
278,3,0.0198364,-0.00152588,0.0597763,0.0622177,-0.000991821
278,4,0.0340271,-0.00354767,0.0627518,0.0658035,0.0115204
279,0,0.0357056,-0.00469208,0.0619125,0.0682449,0.00743866
279,1,0.0362396,-0.00156403,0.0559998,0.0679779,-0.0166321
279,2,0.0222397,-0.0075531,0.0524902,0.0633621,0.0806427
279,3,-0.0038147,-0.00564575,0.0513077,0.062561,0.0789642
279,4,-0.0227737,-0.00293732,0.0524521,0.0632095,0.0811768
280,0,-0.0349426,0.000915527,0.0490189,0.0622559,0.0460052
280,1,-0.0465775,-0.00930786,0.0521088,0.0639725,-0.0979233
280,2,-0.0400162,-0.0152969,0.0577927,0.0650406,-0.0399017
280,3,-0.0234604,-0.00839233,0.0702667,0.0723648,0.0735855
280,4,-0.00694275,-0.00408173,0.0766754,0.0745773,0.0957108
281,0,0.0038147,0.00274658,0.0798035,0.0750732,0.117035
281,1,0.00469208,0.00518799,0.0719833,0.0702286,0.120926
281,2,0.00694275,0.014534,0.0641632,0.0701141,0.12661
281,3,0.0145721,0.0165939,0.0619507,0.0660324,0.114174
281,4,0.0220871,0.0162888,0.0564194,0.0591278,0.107536
282,0,0.0307846,0.00904083,0.0518036,0.0598526,0.095787
282,1,0.0377274,0,0.0518799,0.0593567,0.085144
282,2,0.024147,-0.00282288,0.0520325,0.0611877,0.0795746
282,3,0.00495911,-0.0037384,0.0500107,0.0632095,0.0810242
282,4,0.00209808,0.000915527,0.0492477,0.0637436,0.055809
283,0,-0.00511169,0.000343323,0.04879,0.0614548,0.0484467
283,1,-0.00610352,-0.00102997,0.0478745,0.0618744,0.0531769
283,2,-0.0102615,-0.0075531,0.0479889,0.0613403,0.116463
283,3,-0.0340652,-0.00480652,0.0461197,0.0568008,0.196609
283,4,-0.0419235,-0.00408173,0.0496292,0.0585938,0.207634
284,0,-0.0362778,-0.00572205,0.0520706,0.0622559,0.205574
284,1,-0.0356293,-0.0082016,0.0534058,0.0597382,0.144157
284,2,-0.0267792,-0.0069046,0.0514221,0.0613403,0.0259399
284,3,-0.0236511,-0.00797272,0.0571442,0.0671005,-0.148125
284,4,-0.0157547,-0.00511169,0.0636292,0.0645447,-0.323792
285,0,-0.0107956,7.63E-05,0.0694275,0.0676346,-0.234375
285,1,-0.00911713,0.00862122,0.0733566,0.0755692,-0.0305939
285,2,-0.00217438,0.0179672,0.0814438,0.0797272,0.103035
285,3,0.0018692,0.019722,0.0746536,0.0780106,0.0731277
285,4,0.00247955,0.0105667,0.0650787,0.0726318,0.0509644
286,0,0.00427246,0.00652313,0.0578308,0.0652695,0.125084
286,1,0.0109482,0.00572205,0.0549698,0.0621796,0.18425
286,2,0.0143051,0.00495911,0.0485992,0.0595474,0.223541
286,3,0.0172806,0.0018692,0.0480652,0.058136,0.203552
286,4,0.0205231,-0.00537872,0.0524521,0.0585938,0.169373
287,0,0.0177002,-0.0082016,0.0505447,0.0624466,0.191841
287,1,0.0165939,-0.00720978,0.0563431,0.0635147,0.0901794
287,2,0.0150299,-0.00583649,0.0577545,0.062294,-0.0376892
287,3,0.0123978,-0.00583649,0.0589752,0.0650787,0.116043
287,4,0.0156784,-0.00419617,0.063591,0.0679016,0.204849
288,0,0.0201035,0.000534058,0.0647354,0.0667191,0.177727
288,1,0.0149155,0.00102997,0.0602341,0.0657654,0.128098
288,2,0.00988007,-0.00213623,0.0564957,0.0656128,0.0977707
288,3,0.0087738,-0.00587463,0.0543976,0.0637054,0.0984955
288,4,0.00652313,-0.00606537,0.0526047,0.0618744,0.051384
289,0,0.00801086,-0.00492096,0.0531006,0.0595856,-0.231628
289,1,0.00541687,-0.00263214,0.0497055,0.0616074,-0.0585556
289,2,0.00644684,0.00167847,0.0530243,0.0622559,0.0316238
289,3,0.00598907,0.000495911,0.0514984,0.0632095,-0.0896072
289,4,-0.000762939,-0.00213623,0.0500107,0.0591278,-0.0352097
290,0,-0.00499725,-0.00164032,0.0477982,0.0556183,-0.297775
290,1,-0.00617981,0.00282288,0.0484467,0.0596619,-0.134125
290,2,-0.00282288,0.000152588,0.0548553,0.0646591,0.0405884
290,3,-0.00667572,0.00408173,0.0519943,0.0601196,0.147362
290,4,-0.00720978,0.00392914,0.0511932,0.0622177,0.237656
291,0,-0.00663757,0.0109482,0.0515747,0.063858,0.161896
291,1,-0.00621796,0.00728607,0.0546265,0.066185,0.0555801
291,2,-0.00827789,0.00228882,0.0561523,0.0676346,0.112648
291,3,-0.0115204,0.000610352,0.0572968,0.0645065,0.138435
291,4,-0.00411987,0.001297,0.0574493,0.0676346,0.155945
292,0,-0.00137329,0.00408173,0.060997,0.0689697,0.141487
292,1,-0.000991821,0.000724792,0.0582504,0.0672531,0.1408
292,2,-0.00152588,-0.00217438,0.0561142,0.0621033,0.148735
292,3,-0.00270844,-0.00102997,0.0513458,0.06073,0.153732
292,4,0.000610352,-0.00244141,0.0514984,0.0603104,0.16243
293,0,-0.00038147,-0.000419617,0.0510788,0.0625992,0.146828
293,1,-0.0012207,-0.00343323,0.0537491,0.0592804,0.129623
293,2,0.00213623,-0.00415802,0.0564575,0.0621796,0.111389
293,3,-0.00263214,-0.00499725,0.0550079,0.0619125,0.0255203
293,4,-0.00392914,-0.00450134,0.0562668,0.0625229,-0.0515747
294,0,-0.00553131,-0.0031662,0.0583267,0.0616837,0.0244141
294,1,-0.00270844,-0.00190735,0.0621414,0.0617218,0.0618744
294,2,0.000534058,-0.000495911,0.0639343,0.0657272,0.117188
294,3,-0.00270844,-0.00236511,0.061264,0.0643539,0.141907
294,4,-0.00205994,0.00152588,0.0575638,0.0606918,0.126076
295,0,-0.00175476,0.00602722,0.0543976,0.0629044,0.113068
295,1,-3.81E-05,0.000648499,0.059967,0.0650787,0.0757599
295,2,-0.000419617,-7.63E-05,0.0625229,0.0659561,-0.0232697
295,3,0.00160217,0.00331879,0.0640106,0.0671387,-0.190163
295,4,0.00480652,0.00576019,0.0652313,0.0685501,-0.154495
296,0,0.00644684,0.00900269,0.0659561,0.0741959,-0.0405884
296,1,0.00144958,0.000190735,0.0647354,0.073967,0.00694275
296,2,0.00164032,-0.00812531,0.0609589,0.0693512,0.0485229
296,3,0.00038147,-0.00808716,0.0530624,0.0661469,0.0656128
296,4,0.00370026,-0.0144577,0.052681,0.0627899,0.0956345
297,0,0.00465393,-0.0120926,0.0527191,0.0640488,0.130234
297,1,0.0056076,-0.0242233,0.0537109,0.0643158,0.127182
297,2,0.00259399,0.00331879,0.0573349,0.0672531,0.12291
297,3,0.000839233,0.0641251,0.0548935,0.0660324,0.108452
297,4,-0.000724792,0.0678253,0.0470734,0.0619125,0.093956
298,0,-0.00370026,0.0603867,0.0468826,0.0582886,0.0796509
298,1,-0.000534058,0.0413895,0.0488281,0.061264,0.062027
298,2,0.00228882,-0.0215149,0.0510025,0.0600433,0.0692368
298,3,0.00274658,-0.0662994,0.0548553,0.0609207,0.0738907
298,4,0.0038147,-0.0670624,0.0544739,0.0623322,0.0798035
299,0,0.00389099,-0.0403976,0.0605774,0.0639725,0.074234
299,1,0.00106812,-0.0101852,0.0583649,0.0643158,0.0670624
299,2,-0.00110626,-0.00976563,0.0544357,0.0627899,0.0667953
299,3,-0.00038147,-0.0120926,0.0572586,0.0597382,0.0686264
299,4,0.000953674,0.00183105,0.0586319,0.0658035,0.0756073
300,0,0.00404358,0.0107193,0.0611496,0.0650024,0.0774765
300,1,0.000762939,0.0208664,0.0610352,0.0643158,0.0786209
300,2,-0.00160217,0.0178909,0.0582504,0.0624084,0.0704575
300,3,-0.00312805,0.0119781,0.0556564,0.0615311,0.0669098
300,4,-0.00305176,0.00278473,0.0561523,0.0614166,0.0656509
301,0,-0.00282288,-0.00461578,0.0583267,0.0613785,0.0642776
301,1,-0.00160217,3.81E-05,0.0594711,0.0630569,0.0670624
301,2,-0.00038147,0.00534058,0.0616074,0.0647354,0.0637817
301,3,0.00038147,0.00595093,0.0601196,0.0651932,0.0634766
301,4,0.000114441,0.00343323,0.0580215,0.0614548,0.0592041
302,0,-0.00442505,-0.0261307,0.0522614,0.0609207,0.0531006
302,1,-0.00160217,-0.0471497,0.0541687,0.0624847,0.0540543
302,2,0.000419617,-0.0249481,0.0547791,0.0679398,0.0582886
302,3,0.000686646,0.015564,0.0553131,0.0659561,0.058136
302,4,0.00156403,0.021553,0.0525665,0.0646973,0.0612259
303,0,0.00221252,0.0188065,0.0553131,0.065918,0.0637436
303,1,0.00305176,0.0267029,0.0566483,0.064888,0.0639725
303,2,0.000534058,0.0148773,0.0603485,0.0652695,0.0639343
303,3,-0.00343323,0.00236511,0.0569916,0.062561,0.0638962
303,4,0.00221252,0.0125885,0.060997,0.0682068,0.0683594
304,0,-0.00133514,0.0161362,0.0611877,0.0722504,0.0714493
304,1,-0.00537872,-0.00423431,0.0580215,0.0677872,0.0694275
304,2,-0.00389099,-0.0313187,0.0560379,0.0652313,0.0672531
304,3,0.000648499,-0.0298309,0.0542068,0.0639343,0.0667191
304,4,0.00541687,-0.0200653,0.0567627,0.0640869,0.0682831
305,0,0.00785828,-0.0149918,0.0551224,0.0625992,0.0683594
305,1,0.00881195,0.0654602,0.0559998,0.0612259,0.0665283
305,2,0.00835419,0.0980377,0.0535965,0.0640869,0.0667953
305,3,0.00762939,0.0101089,0.0553513,0.0641251,0.0646973
305,4,-0.00160217,-0.0317001,0.0534821,0.062294,0.0643539
306,0,-0.00480652,-0.0323105,0.051918,0.059967,0.0647354
306,1,-0.0037384,-0.0340652,0.0535965,0.0572586,0.0669861
306,2,-0.00160217,-0.0278854,0.0566483,0.0636673,0.0697327
306,3,-0.00137329,-0.00125885,0.0600433,0.0637436,0.0677872
306,4,-0.000762939,0.0421524,0.0597382,0.0668335,0.0672913
307,0,0.00408173,0.0602341,0.0581741,0.0650024,0.0714111
307,1,0.00335693,0.0234222,0.0615692,0.0670242,0.0727844
307,2,-0.000991821,-0.00278473,0.057106,0.0644302,0.0685501
307,3,-0.00259399,-0.0629425,0.0551224,0.0663376,0.0659561
307,4,-3.81E-05,-0.0636292,0.0609589,0.0674438,0.0670242
308,0,0.00320435,-0.0534058,0.0635529,0.071373,0.0721741
308,1,0.00110626,-0.0280762,0.0631332,0.0687027,0.0685501
308,2,-0.0031662,-0.0341797,0.0571442,0.0667191,0.0664902
308,3,-0.00782013,0.0385666,0.0530243,0.0627899,0.060997
308,4,-0.001297,0.100937,0.0540161,0.0629044,0.0650787
309,0,0.000228882,-0.011673,0.0594711,0.062561,0.0687027
309,1,-0.000839233,0.0163651,0.0551224,0.0647736,0.0668335
309,2,0.00141144,-0.00114441,0.0576782,0.0645447,0.0658417
309,3,-0.000495911,-0.0265121,0.0617218,0.0630188,0.0634384
309,4,-0.00350952,-0.0101471,0.0558853,0.0614929,0.0485992
310,0,-0.00602722,-0.00293732,0.0521088,0.0572586,0.046463
310,1,-0.00415802,0.0226212,0.0535583,0.0595474,0.0617599
310,2,-0.00141144,-0.0304794,0.0573349,0.062561,0.0696182
310,3,0.00293732,-0.078125,0.0603485,0.0657272,0.0729752
310,4,0.00461578,-0.0637817,0.0580597,0.0654984,0.0743103
311,0,0.00419617,0.00946045,0.0562668,0.0664902,0.072403
311,1,0.00274658,0.0789642,0.0562286,0.0658417,0.071373
311,2,0.00144958,0.0755692,0.0515747,0.0610733,0.0721741
311,3,0.00152588,0.026741,0.0536346,0.0621033,0.0718689
311,4,0.00293732,0.0749588,0.0595093,0.0643158,0.0734329
312,0,0.0050354,0.0722122,0.059166,0.067749,0.07267
312,1,0.00461578,-0.0683212,0.057869,0.0679779,0.0661469
312,2,-0.00144958,-0.0522995,0.0553131,0.0617218,0.0658035
312,3,-0.00225067,-0.0209045,0.0537872,0.0619125,0.0649261
312,4,-3.81E-05,0.0386429,0.053978,0.0742722,0.0626373
313,0,0.00343323,0.203705,0.0686646,0.0736237,0.0614929
313,1,0.00152588,0.133362,0.0624466,0.0938416,0.0595474
313,2,0.00141144,-0.0908661,0.0550461,0.101089,0.0643158
313,3,0.00354767,-0.0719452,0.0411606,0.098381,0.0649261
313,4,3.81E-05,-0.0392532,0.0341415,0.0802994,0.062027
314,0,-0.00377655,-0.0398636,0.0675201,0.0168228,0.0623322
314,1,-0.00225067,-0.0558853,0.0673676,-0.0611115,0.0653458
314,2,-0.000343323,-0.105896,0.0559235,-0.0463867,0.0659943
314,3,-0.000648499,-0.0954819,0.0488663,0.0261307,0.0728226
314,4,0.00167847,-0.0591278,0.0967407,0.0765991,0.0709915
315,0,0.00274658,-0.000648499,0.0653458,0.0980759,0.0712585
315,1,0.00648499,0.054245,0.0893402,0.102196,0.067749
315,2,-0.00282288,0.0704956,0.0661469,0.0852203,0.0654602
315,3,-0.00816345,0.0859833,0.0496674,0.0930786,0.0614929
315,4,-0.0050354,0.05867,0.0695801,0.101509,0.063324
316,0,-0.00358582,-0.0676727,0.0603104,0.0925064,0.0606155
316,1,-0.00423431,-0.0994492,0.0270462,0.0826645,0.0586319
316,2,-0.000305176,-0.0822449,0.0468063,0.0853348,0.0712585
316,3,0.00133514,-0.0501633,0.00205994,0.0840378,0.0708771
316,4,0.00488281,0.00038147,0.0878906,0.0600433,0.0761795
317,0,0.00347137,0.0534439,0.0973892,0.0801468,0.0804901
317,1,0.00404358,0.145302,0.0614929,0.0852203,0.0793839
317,2,0.00205994,0.0809479,0.0263977,0.0658798,0.0678635
317,3,0.000419617,0.0069046,-0.00385284,0.0119781,0.0984192
317,4,-0.00415802,-0.0804138,0.0205994,0.0219727,0.130081
318,0,-0.00556946,-0.0916672,0.0514221,0.0502396,0.106506
318,1,-0.0030899,-0.0587463,-0.0771332,0.0601959,0.0720978
318,2,-0.0012207,-0.0308609,0.049324,0.0631332,0.0206375
318,3,-0.00160217,0.0397873,0.0776291,0.061264,-0.0730133
318,4,-0.00396729,0.0805283,0.11795,0.0539398,-0.123405
319,0,-0.00400543,0.0529099,0.12043,0.0565338,-0.0356293
319,1,-0.00946045,0.0674438,0.0727081,0.0585556,0.0929642
319,2,-0.0094986,0.0645828,0.0469208,0.0660324,0.0812531
319,3,-0.00709534,0.0197601,-0.102654,0.0742722,0.0030899
319,4,-0.000686646,-0.0137711,0.00274658,0.0775528,0.0740051
320,0,0.00743866,-0.0150681,0.168533,0.0775146,0.153732
320,1,0.0130081,-0.0192261,0.150642,0.0739288,0.164642
320,2,0.0161743,-0.0244522,0.0676346,0.0661087,0.115623
320,3,0.012207,-0.0294495,0.124893,0.0651932,0.0252914
320,4,0.0125885,-0.0364685,0.129852,0.0731277,0.116844
321,0,0.00934601,-0.0253296,0.117111,0.0671768,0.168686
321,1,0.00629425,-0.00293732,0.109253,0.0487137,0.164719
321,2,0.00259399,0.0440216,0.100441,0.0333023,0.168152
321,3,-0.00228882,0.0483322,0.0983047,0.0326538,0.143051
321,4,-0.00377655,0.0104141,0.0694275,0.0524139,0.121231
322,0,-0.00904083,-0.0201035,0.0331879,0.0621796,0.109901
322,1,-0.00907898,-0.0405121,0.0221252,0.068512,0.0723648
322,2,-0.00366211,-0.043602,0.0309372,0.0705719,0.0453568
322,3,-0.00331879,-0.0384521,-0.0182724,0.0655365,0.0421143
322,4,-0.00255585,-0.0357437,-0.0474167,0.0601196,0.0522614
323,0,-0.00102997,-0.00804901,-0.0377655,0.0657654,0.00427246
323,1,-0.00190735,0.0497055,-0.0205612,0.0677109,-0.0183868
323,2,-0.00766754,0.0674438,0.0266647,0.0668335,-0.04673
323,3,-0.00926971,0.0463104,0.181999,0.0690842,-0.0942993
323,4,-0.00675201,0.0496292,0.169907,0.0746155,0.0795746
324,0,-0.000114441,0.0202179,0.0202942,0.0786209,0.127983
324,1,0.0056839,-0.0376511,0.0702667,0.073204,0.137329
324,2,0.00720978,-0.019455,-0.0758362,0.0595474,0.146141
324,3,0.0101089,0.00228882,-0.00621796,0.0589752,-0.0105286
324,4,0.0120544,0.00587463,0.140076,0.0605011,-0.344505
325,0,0.013504,-0.0239182,0.0226212,0.0587082,-0.143127
325,1,0.01194,-0.00289917,0.0756073,0.0650787,0.161972
325,2,0.00770569,0.0379944,0.0748444,0.0680161,0.103531
325,3,0.000190735,-0.00911713,0.0196075,0.0765991,-0.0879669
325,4,-0.0056076,-0.0444412,0.0539017,0.0847626,0.0118256
326,0,-0.0128555,-0.0413513,0.016861,0.0696182,0.0819016
326,1,-0.0152969,0.0509262,0.0711441,0.0580597,0.0839615
326,2,-0.0062561,0.0698471,0.238342,0.0567245,0.116577
326,3,0.00297546,0.0210571,0.215721,0.0730896,0.230446
326,4,0.00553131,-0.0190735,0.0616837,0.0758743,0.231476
327,0,0.00415802,-0.042305,-0.0513077,0.0811386,0.180016
327,1,0.00350952,-0.0519562,-0.231934,0.0793076,0.18486
327,2,-0.000839233,-0.0465775,-0.111237,0.0727463,0.155907
327,3,-0.00415802,-0.0332642,-0.0253677,0.0476456,0.148392
327,4,-0.00530243,-0.0514221,0.0636673,0.0299072,0.190468
328,0,-0.0115204,-0.0350189,0.183182,0.047226,0.113068
328,1,-0.0152588,-0.0157928,0.239563,0.0613403,0.0389099
328,2,-0.0130463,0.00324249,0.0828171,0.0627136,0.0987244
328,3,-0.0121307,0.0252533,-0.0786972,0.0611877,0.0674438
328,4,0.000686646,0.0154495,0.0104141,0.0658417,0.0387955
329,0,0.00392914,0.0395203,-0.0152588,0.0763702,-0.0165558
329,1,0.0123215,0.150871,0.167084,0.0764465,0.0182343
329,2,0.0240326,0.138359,0.44651,0.0433731,0.0305176
329,3,0.0337982,0.0164795,0.245399,0.0471497,0.0637436
329,4,0.0378799,-0.0378799,0.0445557,0.0812912,0.0962448
330,0,0.036087,-0.0415421,-0.0403595,0.086441,0.112534
330,1,0.0257111,-0.0362778,-0.177307,0.0450516,0.112877
330,2,0.0167084,-0.044632,-0.179138,0.0265884,0.0590515
330,3,0.00259399,-0.0418091,0.0587082,0.0328827,-0.157127
330,4,-0.0218582,-0.0361252,0.232887,0.0922012,-0.191307
331,0,-0.019455,-0.0247192,0.184822,0.10994,0.0758362
331,1,-0.0214386,-0.0196838,0.153503,0.0753784,0.0969696
331,2,-0.0231934,-0.00408173,0.100784,0.0477982,0.0947189
331,3,-0.013237,0.00602722,0.0246429,0.0529861,0.080986
331,4,-0.00759125,0.00507355,0.154953,0.0542068,0.0270844
332,0,-0.00667572,0.00495911,0.265121,0.0561142,0.0444412
332,1,-0.015564,0.0038147,-0.072937,0.0465393,0.0893021
332,2,-0.0468826,0.0019455,-0.0822067,0.0405121,0.0997925
332,3,-0.0400543,0.00217438,-0.0201797,0.0705338,0.100403
332,4,-0.0220871,0.00453949,0.0939178,0.0867844,0.094986
333,0,-0.0150681,0.00766754,0.138855,0.103836,0.0775909
333,1,-0.000572205,0.0107574,0.0747681,0.1651,0.0869751
333,2,0.00793457,0.0111771,-0.0841522,0.240173,0.0939178
333,3,0.0269318,0.0123215,0.0894547,0.182419,0.0949097
333,4,0.0379562,0.00423431,0.220222,0.0398636,0.0880051
334,0,0.0218964,0.00293732,0.168571,-0.137329,0.0680161
334,1,0.0150299,0.00629425,0.139885,-0.268097,0.0579453
334,2,0.0244904,0.00766754,-0.202675,-0.143471,0.0458527
334,3,0.0333023,0.0126266,-0.534897,0.0405502,0.0447845
334,4,0.0125122,0.00961304,-0.332642,0.178986,0.0419235
335,0,-0.0175858,0.00808716,-0.0672913,0.200539,0.0473404
335,1,-0.014267,0.00720978,0.0195694,0.150146,0.0566483
335,2,-0.00957489,0.00411987,0.07267,0.115051,0.0698853
335,3,-0.00671387,-0.00339508,0.126152,0.0863266,0.0679398
335,4,0.0200272,-0.00431061,0.120964,0.0450897,0.073204
336,0,0.0595856,0.00114441,0.0235748,0.0228882,0.068779
336,1,0.0945282,0.000343323,0.0674057,0.0347137,0.0706482
336,2,0.0904465,-0.00202179,0.181427,0.0656891,0.078392
336,3,0.0452042,-0.00576019,0.374374,0.0738907,0.0759125
336,4,-0.0113678,-0.00484467,0.325241,0.082283,0.0577927
337,0,-0.0498962,-0.00778198,0.299606,0.0710678,0.0423813
337,1,-0.0675201,-0.00598907,0.156708,0.0748444,0.0453949
337,2,-0.0762558,-0.000686646,0.099678,0.0794601,0.0645828
337,3,-0.0570679,0.00110626,0.0918579,0.0883102,0.0720978
337,4,-0.038414,-0.0043869,0.0745392,0.0834656,0.0751495
338,0,-0.0292969,-0.00991821,0.107803,0.0791168,0.0772476
338,1,-0.0282669,-0.00896454,0.135994,0.0740433,0.0743866
338,2,-0.0274658,-0.0025177,-0.0811005,0.0695801,0.0768661
338,3,-0.0238419,0.00286102,-0.0130844,0.0485611,0.0812149
338,4,-0.01297,0.00404358,0.0259781,0.0394058,0.0793457
339,0,0.0124741,0.00301361,0.0312805,0.0480652,0.0800323
339,1,0.0144577,-0.00263214,0.0589371,0.0617981,0.0759125
339,2,0.00675201,-0.00167847,0.086441,0.0862885,0.0571823
339,3,0.00629425,-0.00118256,-0.00133514,0.0878906,0.0429153
339,4,-0.0018692,0.00125885,0.00102997,0.08255,0.0495148
340,0,-0.00549316,0.00556946,-0.0253296,0.0628662,0.0786209
340,1,-0.00499725,0.00312805,0.142365,0.0511169,0.0806046
340,2,-0.00518799,0.00160217,0.142937,0.0476074,0.0802612
340,3,0.00133514,0.00152588,0.0503922,0.0514984,0.076828
340,4,0.029335,-0.00148773,-0.19249,0.0456238,0.0564957
341,0,0.0398254,-0.001297,-0.109024,0.0625229,0.0493622
341,1,0.0243378,-0.00152588,-0.022316,0.0715256,0.0481796
341,2,-0.00335693,-0.00946045,-0.00816345,0.0554276,0.0521469
341,3,-0.00530243,-0.00709534,0.103531,0.0469589,0.0671387
341,4,0.0117111,-0.00171661,0.13279,0.0214005,0.0800323
342,0,-0.00198364,-0.00663757,0.202637,0.0276566,0.0754166
342,1,-0.00114441,-0.00274658,0.214348,0.064621,0.0727081
342,2,0.0270081,0.00160217,0.0825882,0.0978851,0.056839
342,3,0.028038,0.00370026,-0.0660324,0.14492,0.026741
342,4,0.0325394,0.00759125,-0.340919,0.107193,0.0102997
343,0,0.0364304,0.00911713,-0.323372,0.051918,0.0210953
343,1,0.0449371,0.00900269,0.0838852,0.0511932,0.0520706
343,2,0.01194,0.00991821,0.104752,0.0537109,0.0749207
343,3,0.0102615,0.00720978,0.154762,0.0381851,0.0715637
343,4,0.00652313,0.00591278,0.199051,0.0397491,0.0811005
344,0,-0.0295258,0.00343323,0.379143,0.0458908,0.100479
344,1,-0.0603485,0.00423431,0.246391,0.0471878,0.111656
344,2,-0.0587082,0.00156403,0.0708389,0.0537109,0.109177
344,3,-0.0521088,0.0019455,-0.130272,0.0526428,0.0856018
344,4,-0.0441742,0.00286102,-0.195007,0.0977325,0.053978
345,0,-0.0507355,-0.000953674,0.316772,0.146561,0.04776
345,1,-0.0555801,0.00244141,0.273819,0.0786972,0.0674438
345,2,-0.0905609,-0.000724792,0.0108719,0.0456619,0.0747299
345,3,-0.0762177,-0.00160217,0.0234222,0.0509644,0.0761414
345,4,-0.0380325,-0.00354767,-0.057373,0.0541306,0.0651932
346,0,0.0159073,-0.00591278,0.0906372,0.0826645,0.0700378
346,1,0.0886917,-0.00572205,0.237389,0.079422,0.0767136
346,2,0.144806,-0.00442505,0.183258,0.0611877,0.0757599
346,3,0.140457,-0.00549316,0.0925827,0.0353241,0.0645447
346,4,0.132561,-0.00225067,-0.0313568,0.073204,0.0787735
347,0,0.105476,0,0.0725937,0.114861,0.0900269
347,1,0.104256,-0.00255585,-0.0312424,0.0652313,0.0769043
347,2,0.0765228,-0.0102234,-0.0342178,0.0293732,0.059967
347,3,0.0151825,-0.0166702,-0.140762,-0.0419617,0.0555038
347,4,-0.0522995,-0.00789642,-0.186996,-0.0572205,0.0427628
348,0,-0.086441,0.00125885,0.159416,0.0506592,0.0559235
348,1,-0.12989,0.0056839,0.342636,0.177155,0.0790787
348,2,-0.146103,0.00339508,0.161324,0.236359,0.0727463
348,3,-0.121536,0.00812531,0.103951,0.111847,0.0539398
348,4,-0.102654,0.0120163,0.08461,-0.013237,0.0465393
349,0,-0.0519562,0.0109482,0.0936127,-0.103989,0.0302505
349,1,0.0169754,0.00740051,0.042572,-0.0699615,0.0428009
349,2,0.0524521,0.00736237,0.0273514,0.0755692,0.0557709
349,3,0.0654984,0.00591278,0.00465393,0.110321,0.0587845
349,4,0.0274277,0.00297546,-0.00225067,0.0750732,0.0685501
350,0,-0.00270844,-3.81E-05,-0.0334167,0.0452042,0.069809
350,1,-0.0316238,-0.00164032,0.00202179,0.0322342,0.0752258
350,2,-0.00717163,0.000762939,-0.0333405,0.0941086,0.0849915
350,3,0.00453949,-0.00392914,0.0278091,0.213509,0.0577545
350,4,-0.0148773,-0.0133514,0.467453,0.278778,0.041275
351,0,0.0186157,-0.0162125,0.348282,0.127831,0.0273132
351,1,0.0798798,-0.0125122,0.103569,-0.00156403,0.0302124
351,2,0.116081,-0.00640869,-0.0333405,-0.00499725,0.0350952
351,3,0.119057,0.00106812,-0.169716,0.0229263,0.0391388
351,4,0.0797272,0.00358582,-0.333405,0.0733948,0.0601959
352,0,0.0278091,0.00564575,-0.343437,0.127182,0.0956726
352,1,-0.0486755,-0.00614166,-0.0579071,0.107384,0.0996017
352,2,-0.0844574,-0.0122833,0.0541687,0.108871,0.0950623
352,3,-0.0965118,-0.00656128,0.119095,0.0335312,0.0927353
352,4,-0.0961685,0.00087738,0.166512,0.0222015,0.113373
353,0,-0.065155,0.00591278,0.255013,0.0263977,0.132217
353,1,-0.0365067,0.00774384,0.248146,0.0204086,0.138016
353,2,-0.00816345,0.0114822,0.0865173,0.0304031,0.128326
353,3,0.0114441,0.0107956,-0.0692368,0.0593185,0.0986481
353,4,0.00762939,0.00854492,0.172882,0.0922012,0.0488281
354,0,-0.0540924,0.00545502,0.543671,0.0556946,-0.00339508
354,1,-0.0881195,0.00404358,-0.0389481,0.0484085,0.00148773
354,2,-0.0577164,0.00331879,-0.349312,0.0395203,0.0240326
354,3,-0.0160599,0.00232697,-0.322342,0.0530243,0.0444412
354,4,0.0525665,0.000114441,0.171661,0.0823212,0.0731277
355,0,0.146942,7.63E-05,0.188751,0.0424194,0.0748444
355,1,0.210266,-0.00144958,0.0986099,-0.00118256,0.0688553
355,2,0.189323,-0.00247955,0.0712967,0.0385284,0.0763321
355,3,0.118446,0.00289917,-0.0185013,0.0401688,0.071106
355,4,0.0469971,0.00812531,-0.11776,0.0320053,0.0652695
356,0,-0.0219727,0.00728607,-0.0312042,0.075264,0.0657272
356,1,-0.0855255,-0.0038147,0.574074,0.102005,0.0604248
356,2,-0.114517,-0.0159836,0.449409,0.102921,0.0604248
356,3,-0.116081,-0.0128174,0.067482,0.0751877,0.0441742
356,4,-0.107727,-0.00904083,0.270386,0.046196,0.0486755
357,0,-0.0854111,-0.00679016,0.161057,0.0743484,0.0656509
357,1,-0.0516129,-0.00328064,0.0569153,0.100098,0.0751495
357,2,-0.0192642,0.000534058,0.0486755,0.112419,0.062027
357,3,0.00953674,0.00545502,-0.480881,0.13195,0.0632477
357,4,0.0265884,0.00209808,-0.323944,0.138512,0.0624466
358,0,0.0283432,0.000343323,0.547256,0.16449,0.0675964
358,1,0.0240326,-0.00274658,0.00770569,0.0738907,0.0484467
358,2,0.00991821,-0.00362396,-0.387192,0.0802612,0.0519943
358,3,0.00545502,-0.00354767,0.140457,0.0141907,0.0557709
358,4,-0.0107956,0.00087738,0.245628,-0.192566,0.0528717
359,0,-0.0198746,-0.00610352,-0.051651,-0.135651,0.0717545
359,1,-0.0172043,-0.00663757,0.000534058,0.0488663,0.0703812
359,2,-0.00694275,-0.0087738,0.0894928,0.09552,0.0730515
359,3,0.0181198,-0.0101089,0.0463867,0.0401688,0.0963593
359,4,0.0596237,0.00572205,-0.0437546,-0.00747681,0.10704
360,0,0.0716019,0.0149918,-0.414696,0.00205994,0.0964355
360,1,0.0432587,0.0312042,-0.0973129,0.0866699,0.0825882
360,2,0.00759125,0.0268555,0.154572,0.14698,0.0685883
360,3,-0.0150681,0.0178146,0.190201,0.179138,0.0574493
360,4,-0.0282288,0.00667572,0.36068,0.164337,0.0559616
361,0,-0.0044632,0.0454712,0.291519,0.0936508,0.0536728
361,1,0.0110626,0.0292969,0.150223,0.050621,0.0507736
361,2,0.00961304,0.0521469,0.162277,0.0201797,0.0505447
361,3,0.0140381,0.0617981,0.216141,0.0616455,0.0624847
361,4,0.013504,-0.017128,0.142479,0.098114,0.0618362
362,0,0.00583649,-0.0960922,-0.0326538,0.0911331,0.0786209
362,1,-0.0030899,-0.0896454,-0.178337,0.132446,0.0679779
362,2,-0.0154495,-0.0805664,-0.0444794,0.233154,0.051384
362,3,-0.0150299,-0.0765991,-0.0816345,0.245018,0.0597
362,4,-0.0207901,-0.0574875,0.0525284,0.14595,0.0580597
363,0,-0.0242996,-0.0385284,0.226021,-0.0238419,0.0679398
363,1,-0.0177383,0.0369263,0.251389,-0.214157,0.0590897
363,2,-0.0219345,0.173225,0.126686,-0.173798,0.0441742
363,3,-0.0143814,0.171432,-0.0343704,0.032959,0.0496674
363,4,-0.0050354,0.0519562,-0.0688553,0.208817,0.0572586
364,0,0.00183105,-0.026741,-0.00335693,0.287857,0.0646591
364,1,0.00900269,-0.0571442,0.109901,0.234222,0.0862503
364,2,0.00629425,-0.057106,0.188103,-0.0363159,0.0977707
364,3,0.00656128,-0.0607681,0.0809097,-0.24929,0.0899506
364,4,0.00659943,-0.0548935,-0.261879,-0.152664,0.0906754
365,0,0.00480652,-0.0468826,-0.410919,-0.0138855,0.09655
365,1,0.00858307,-0.0312805,0.603371,0.0444794,0.10376
365,2,0.00831604,0.0422668,0.736847,0.0913239,0.0790787
365,3,0.00812531,0.0776672,-0.0846481,0.0847244,0.054512
365,4,0.00694275,-0.0134277,-0.0399399,0.119133,0.0588608
366,0,0.000839233,-0.0455093,-0.173798,0.142059,0.0616074
366,1,-0.00137329,-0.0593567,-0.423126,0.168152,0.0587845
366,2,0.000152588,-0.0210571,-0.0817108,0.165405,0.045166
366,3,0.00167847,0.0722504,-0.0748444,0.121536,0.0539017
366,4,0.00175476,0.0868225,-0.0207901,0.159531,0.0436783
367,0,-0.000228882,0.0796127,0.09552,0.198021,0.0265121
367,1,-0.000648499,0.0593948,0.161552,0.155754,0.0393295
367,2,-0.00236511,0.000152588,0.12394,-0.0270081,0.0597763
367,3,-0.00419617,-0.00961304,0.150032,-0.133018,0.0546646
367,4,-0.00110626,-0.00999451,0.0802994,-0.0785828,0.0590134
368,0,0.00347137,-0.0120926,0.144997,0.0694656,0.0799942
368,1,0.00347137,-0.0304794,0.216446,0.0584412,0.0843048
368,2,-0.00102997,-0.0491333,0.211678,0.0452423,0.0805664
368,3,-0.00175476,-0.0459671,0.243225,0.112991,0.0782394
368,4,-0.00267029,-0.041008,0.192032,0.0921249,0.0742722
369,0,-0.00263214,-0.0296783,0.0483704,0.0428009,0.0774384
369,1,-0.00102997,-0.0227737,-0.000839233,-0.0311661,0.0796127
369,2,0.001297,-0.0147247,-0.0149536,-0.0766754,0.0643158
369,3,0.00179291,-0.00961304,-0.087204,0.0149155,0.060463
369,4,0.00175476,-0.00522614,-0.0489426,0.0906754,0.0553131
370,0,-0.00205994,-0.00583649,0.137787,0.168495,0.0611115
370,1,-0.0038147,7.63E-05,0.342178,0.151901,0.0688171
370,2,-0.00141144,0.0130463,0.111465,0.102386,0.0723648
370,3,0.00202179,0.0475693,-0.0622559,0.18837,0.0747681
370,4,0.000305176,0.0325012,-0.166626,0.220909,0.0753403
371,0,-0.000190735,0.0119019,0.0424576,0.0771332,0.0832748
371,1,0.00141144,0.0131226,-0.0343704,0.00347137,0.076828
371,2,0.000495911,0.0257492,-0.0824738,-0.103111,0.0621414
371,3,-0.000495911,-0.00202179,-0.0658035,-0.260239,0.0570679
371,4,0.00305176,-0.0167084,0.268059,-0.128479,0.0634766
372,0,0.00190735,-0.0144196,0.214005,0.0780487,0.0684357
372,1,0.0038147,0.000839233,0.0576782,0.140114,0.0716782
372,2,0.00205994,0.0200653,0.0665665,0.165863,0.0731277
372,3,-0.000305176,0.0314713,0.164375,0.156021,0.0694656
372,4,-3.81E-05,0.0501633,0.215607,0.0895691,0.0567627
373,0,0.000457764,0.0233459,0.00644684,0.0344467,0.0593185
373,1,0.00297546,0.0322342,-0.23407,0.0524521,0.0563431
373,2,0.00553131,0.0170517,-0.210457,0.129433,0.0489044
373,3,0.00190735,-0.0159073,-0.0349808,0.167046,0.054512
373,4,0.00247955,-0.00240326,0.125198,0.133057,0.0580597
374,0,-0.00392914,0.000190735,-0.0723267,0.0675201,0.0663376
374,1,-0.0025177,-0.00576019,0.0118256,0.0246048,0.0547791
374,2,0.0018692,0.00240326,-0.122948,0.0781631,0.0547409
374,3,0.00301361,0.0062561,0.0596237,0.14225,0.0680542
374,4,0.00228882,-0.00396729,0.21183,0.120125,0.0790405
375,0,0.00305176,-0.0159073,0.103111,0.0870514,0.0826263
375,1,0.00259399,-0.0243378,0.0334167,0.0559998,0.0821304
375,2,0.00259399,-0.0228119,0.0857162,0.027771,0.0775909
375,3,-0.00278473,-0.0290298,0.0667191,0.0619125,0.0748062
375,4,-0.0037384,-0.0294495,0.255241,0.0891113,0.0750351
376,0,7.63E-05,-0.0216293,0.37632,0.0893021,0.0766754
376,1,0.00595093,-0.0185013,0.203934,0.0731659,0.0736237
376,2,0.00450134,-0.0175095,0.14801,0.0649261,0.0648117
376,3,-0.00133514,-0.0165939,0.083046,0.0307083,0.0611115
376,4,0.00118256,-0.0120544,0.075798,0.0181961,0.0575638
377,0,0.00827789,-0.00419617,-0.030365,0.0397491,0.0536346
377,1,0.00831604,7.63E-05,0.0254059,-0.0189972,0.0491714
377,2,0.00938416,0.00389099,0.179901,-0.0130463,0.0481415
377,3,0.00293732,0.0101471,0.090332,0.00747681,0.0523376
377,4,-0.00267029,0.00854492,-0.261993,-0.0566864,0.0579071
378,0,-0.00789642,0.00858307,-0.118599,0.00747681,0.0639725
378,1,-0.00919342,0.00881195,0.00862122,0.086441,0.0717926
378,2,-0.00713348,0.0101089,0.0279999,0.141678,0.0742722
378,3,-0.00534058,0.0108337,0.0514603,0.19062,0.0738144
378,4,-0.0050354,0.0134277,0.0600815,0.216217,0.0739288
379,0,-0.00301361,0.0122833,0.0749207,0.0933075,0.0761414
379,1,-0.00133514,0.0123215,0.0796509,-0.0403976,0.0763702
379,2,0.000419617,0.0105667,0.0760651,-0.129967,0.0715637
379,3,-0.00328064,0.00751495,0.0722504,-0.0291824,0.0639343
379,4,0.000114441,0.00556946,0.0763321,0.111771,0.0696182
380,0,0.00762939,0.00766754,0.0828934,0.162506,0.0751114
380,1,0.00984192,0.00846863,0.0822067,0.13443,0.0768661
380,2,0.00492096,0.00930786,0.0769806,0.0766754,0.0702286
380,3,0.00427246,0.00125885,0.0669861,0.0458145,0.0647736
380,4,0.00465393,-0.00148773,0.0614929,0.0512314,0.067215
381,0,0.00358582,-0.00133514,0.0582123,0.0774002,0.0603104
381,1,0.00522614,-0.00171661,0.0511169,0.104523,0.0626755
381,2,0.00312805,-0.000953674,0.051384,0.111656,0.0629807
381,3,0.000953674,0.000305176,0.0531006,0.0956726,0.0637054
381,4,-0.00320435,-0.0030899,0.0453568,0.0860977,0.060997
382,0,-0.00682831,-0.0118637,0.0382233,0.08255,0.058403
382,1,-0.00652313,-0.00682831,0.0374603,0.0777435,0.0571442
382,2,-0.0030899,-0.00946045,0.0396729,0.0748062,0.0589752
382,3,-0.00102997,-0.00522614,0.0453568,0.0665283,0.0619125
382,4,-0.00141144,-0.00408173,0.045433,0.0585175,0.0611877
383,0,-0.00171661,-0.00274658,0.0464249,0.0564575,0.0636292
383,1,-0.000648499,-0.00167847,0.0453949,0.0557709,0.0627518
383,2,0.00156403,-0.00362396,0.0502777,0.0560379,0.0626755
383,3,0.00839233,-0.0031662,0.0484085,0.0757599,0.0634003
383,4,0.0124741,0.000152588,0.0510406,0.0635529,0.0637436
384,0,0.0209808,0.0030899,0.0559235,0.0341034,0.071106
384,1,0.0222778,0.00431061,0.0606155,0.00896454,0.0705338
384,2,0.0123215,0.00343323,0.0593185,0.030365,0.0725555
384,3,0.000267029,0.00259399,0.0547409,0.0690842,0.0699615
384,4,-0.000190735,-0.00205994,0.0574493,0.0631332,0.0696564
385,0,-0.00164032,0.000190735,0.0613022,0.00362396,0.0662613
385,1,-0.00370026,-0.00335693,0.0623703,0.00499725,0.0703812
385,2,-0.00473022,-0.0018692,0.0636292,0.0512314,0.0737
385,3,-0.00240326,0.000648499,0.0670624,0.0692749,0.0733566
385,4,-0.00328064,0.0012207,0.0634003,0.0720215,0.0709534
386,0,-0.00579834,-0.00209808,0.0579071,0.0700378,0.0698853
386,1,-0.0101089,-0.00171661,0.0554276,0.0756454,0.0676727
386,2,-0.00511169,-0.00102997,0.0552368,0.0759125,0.0671387
386,3,-0.00259399,0.0018692,0.0592804,0.0848007,0.0706482
386,4,-0.0038147,0.00236511,0.0596619,0.0861359,0.072403
387,0,-0.000228882,0.00286102,0.0621033,0.0807571,0.070076
387,1,-0.00434875,0.00244141,0.0622177,0.0778198,0.0696564
387,2,-0.00831604,0.00228882,0.0622177,0.0760269,0.072403
387,3,-0.00858307,0.00152588,0.0580215,0.0712967,0.0664139
387,4,-0.00740051,0.00267029,0.0569534,0.0734711,0.0656128
388,0,-0.000610352,0.00335693,0.0588608,0.0737762,0.0717163
388,1,-7.63E-05,0.00293732,0.0610733,0.0730133,0.0696945
388,2,0.00038147,0.0044632,0.0605011,0.0688553,0.0637436
388,3,0.000343323,0.00225067,0.0582123,0.0663757,0.0614929
388,4,0.00293732,-0.000267029,0.0601578,0.064888,0.0660706
389,0,0.00434875,-0.00164032,0.0567627,0.0647736,0.0671387
389,1,0.00324249,-0.00137329,0.0576782,0.0623703,0.0634384
389,2,0.0030899,0.000534058,0.0563049,0.0629807,0.0610352
389,3,0.00324249,0.00270844,0.0579834,0.0678253,0.062294
389,4,0.00167847,0.000724792,0.0585556,0.0657654,0.0597382
390,0,-0.001297,-0.0044632,0.0546646,0.0629807,0.0520706
390,1,-0.00144958,-0.0043869,0.0497818,0.0576401,0.0457382
390,2,0.00209808,-0.0030899,0.0566483,0.0600433,0.045433
390,3,0.00598907,0,0.0562668,0.0605392,0.043869
390,4,0.00751495,0.0012207,0.0535583,0.059967,0.0450516
391,0,0.00656128,7.63E-05,0.0534439,0.0579834,0.0547409
391,1,0.00659943,0.000801086,0.0520706,0.0575638,0.0629044
391,2,0.00553131,-0.000534058,0.0475311,0.0585938,0.0699615
391,3,0.00427246,-0.000534058,0.0494766,0.0573349,0.0688553
391,4,0.00415802,0.0018692,0.04776,0.0556946,0.0667953
392,0,0.00347137,0.0044632,0.057373,0.0617218,0.0711441
392,1,0.00537872,0.00480652,0.0611877,0.0658035,0.0653458
392,2,0.00392914,0.00621796,0.061264,0.0696564,0.0666428
392,3,-0.00175476,-0.001297,0.063324,0.0666809,0.0716782
392,4,-0.000610352,-0.000686646,0.0606155,0.0651932,0.0777054
393,0,-0.000534058,-0.000114441,0.0566864,0.0650406,0.0860214
393,1,-0.00270844,-0.00125885,0.0564194,0.0622177,0.0927734
393,2,-0.00347137,-0.000343323,0.0592422,0.0613785,0.0871277
393,3,0.000152588,0.00190735,0.0616455,0.0647736,0.078392
393,4,-0.0044632,0.000610352,0.0583649,0.0658417,0.0719833
394,0,-0.00511169,-0.00385284,0.0535965,0.0609207,0.0713348
394,1,-0.0075531,-0.00591278,0.0525284,0.0595856,0.0719833
394,2,-0.00480652,-0.00286102,0.0569534,0.0617599,0.0824356
394,3,-0.00236511,0.00118256,0.0561142,0.0641251,0.0845718
394,4,-0.000762939,-0.000801086,0.0595093,0.0628281,0.0738907
395,0,0.000534058,0.00164032,0.0570297,0.0645065,0.038414
395,1,0.00236511,0.000343323,0.0585938,0.0634766,0.0253296
395,2,0.00228882,-0.000953674,0.063591,0.0662613,0.0533295
395,3,0.00221252,-0.00190735,0.0615692,0.0652695,0.0609589
395,4,0.000114441,-0.00183105,0.0662613,0.0681305,0.0779724
396,0,0.00457764,0.000457764,0.0692749,0.0726318,0.0785065
396,1,0.00522614,0.00297546,0.070076,0.0745392,0.0585175
396,2,0.00171661,0.00598907,0.0632858,0.070343,0.0892258
396,3,-0.00202179,0.000228882,0.0544357,0.0618362,0.0981522
396,4,-0.00137329,0.00137329,0.0540543,0.0604248,0.0984573
397,0,0.000419617,0.000267029,0.0516129,0.060463,0.0703049
397,1,0.000228882,0.000114441,0.0504303,0.0605774,0.0184631
397,2,0.00202179,-0.00110626,0.0508499,0.0613022,0.0135803
397,3,0.00125885,0.00175476,0.0536346,0.0653458,-0.00320435
397,4,0.00286102,0.000724792,0.0580215,0.0634384,0.0270081
398,0,-0.00427246,-0.00141144,0.0543213,0.06073,0.0655746
398,1,-0.0075531,-0.00343323,0.0543976,0.0614166,0.042572
398,2,-0.00179291,-0.00286102,0.0597382,0.0658035,0.109138
398,3,0.00423431,0.00152588,0.0610733,0.0671387,0.117569
398,4,0.00392914,0.0019455,0.0611877,0.0662613,0.0882721
399,0,0.00480652,0.00141144,0.0616837,0.0671005,0.0690842
399,1,0.00427246,0.00209808,0.0577164,0.0639343,0.0556564
399,2,0.00350952,0.000839233,0.0547028,0.0624466,-0.032196
399,3,0.00240326,-7.63E-05,0.0576019,0.0640106,0.0570297
399,4,0.00236511,-0.000801086,0.0583649,0.0657272,0.141525
400,0,0.00499725,0.00228882,0.0590134,0.0687027,0.149269
400,1,0.00801086,0.00572205,0.057869,0.0693512,0.133553
400,2,0.00255585,0.00274658,0.0515366,0.066185,0.0933838
400,3,-0.00492096,0.000305176,0.0455093,0.0609589,-0.0263214
400,4,-0.00450134,-0.00038147,0.0470734,0.0614166,-0.0424957
401,0,-0.00392914,0.000267029,0.0453568,0.0615311,-0.00297546
401,1,-0.00259399,-0.00205994,0.0435638,0.0589752,0.0154877
401,2,-0.00225067,-0.00267029,0.0436783,0.0583649,0.138474
401,3,0.00183105,-0.000610352,0.0470352,0.0594711,0.199089
401,4,0.00114441,-3.81E-05,0.0460434,0.0575638,0.169868
402,0,-0.00156403,-0.00480652,0.0428391,0.0569534,0.167084
402,1,-0.00400543,-0.00286102,0.0511932,0.0611496,0.152969
402,2,-0.0031662,-0.00232697,0.0524902,0.0646591,0.147018
402,3,0.00106812,0.000457764,0.0572205,0.065918,0.0930786
402,4,0.00240326,0.00148773,0.0563431,0.0686264,0.0519562
403,0,0.000114441,-0.000915527,0.0657654,0.0736618,0.0492096
403,1,-0.00202179,0.00270844,0.068512,0.07267,0.0616074
403,2,-0.00686646,0.00179291,0.0635147,0.0712967,0.0429535
403,3,-0.00854492,-0.000267029,0.0614166,0.0653839,0.0217819
403,4,-0.00572205,0.00312805,0.0576019,0.0629044,0.0124359
404,0,0.00312805,0.00694275,0.0579453,0.0629425,-0.00831604
404,1,0.00526428,0.00595093,0.0597382,0.0638962,0.00331879
404,2,-0.0030899,0.00591278,0.059433,0.0636673,-0.0413513
404,3,-0.00686646,0.00267029,0.0571442,0.0615311,-0.117455
404,4,-0.00431061,0.000953674,0.0527573,0.062561,-0.0194931
405,0,0.00171661,0.000228882,0.0524139,0.0616455,0.0564957
405,1,0.00347137,0.00125885,0.0554657,0.0630188,0.111847
405,2,0.00511169,-0.00343323,0.0646591,0.0651932,0.0997543
405,3,0.00110626,-0.00190735,0.0643921,0.0673676,0.0740433
405,4,-0.0139236,-0.00259399,0.059967,0.0657654,0.0666046
406,0,-0.0220108,-0.00362396,0.0545883,0.0589752,0.0353622
406,1,-0.0229263,-0.0056839,0.0510788,0.0551605,0.0445175
406,2,-0.0164795,-0.00453949,0.0580215,0.0595856,0.0383377
406,3,-0.00370026,-0.00118256,0.0610352,0.0651932,0.0711441
406,4,0.0109482,0.00232697,0.0630951,0.0675964,0.0878143
407,0,0.018425,0.00511169,0.060997,0.0661087,0.0886917
407,1,0.0219727,0.00263214,0.0567627,0.0650787,0.0959778
407,2,0.0296402,-0.00171661,0.0561523,0.0647354,0.114174
407,3,0.046463,-0.00461578,0.0577164,0.0613022,0.135117
407,4,0.0714874,-0.00297546,0.0569534,0.0645447,0.134354
408,0,0.0785828,0.00362396,0.0590897,0.0667572,0.132408
408,1,0.0557327,0.00133514,0.0618744,0.0663757,0.130272
408,2,0.019722,0.00499725,0.0580597,0.067215,0.121346
408,3,-0.000610352,0.000610352,0.0537491,0.0627136,0.0949478
408,4,-0.0192642,-0.00144958,0.0550079,0.0631332,0.0689697
409,0,-0.0300217,0.00164032,0.0564194,0.0637436,0.0540161
409,1,-0.0402069,-7.63E-05,0.0549698,0.0661469,0.0444031
409,2,-0.0431824,0.00270844,0.055542,0.0639725,0.0632477
409,3,-0.0458527,0.0044632,0.0571442,0.0666809,0.0201035
409,4,-0.0494766,0.00331879,0.0547791,0.0653076,0.0270081
410,0,-0.0448608,-0.00118256,0.0541687,0.0625992,0.056839
410,1,-0.0442123,-0.00461578,0.0513458,0.0595474,0.0656509
410,2,-0.0356293,-0.00118256,0.0540161,0.06073,0.0606537
410,3,-0.0235748,3.81E-05,0.0564575,0.0645447,0.0302124
410,4,-0.0181961,0,0.0619125,0.0654984,-0.0253296
411,0,-0.0163269,0.00213623,0.0572586,0.0658798,0.00675201
411,1,-0.0102997,-0.000152588,0.0577164,0.0650406,0.061264
